6.18E+11,1.73E+12,476629
6.18E+11,1.73E+12,475819
6.18E+11,1.73E+12,475083
6.18E+11,1.73E+12,474571
6.18E+11,1.73E+12,474042
6.18E+11,1.73E+12,473804
6.18E+11,1.73E+12,473477
6.18E+11,1.73E+12,473399
6.18E+11,1.73E+12,473138
6.18E+11,1.73E+12,472549
6.18E+11,1.73E+12,471364
6.18E+11,1.73E+12,469675
6.18E+11,1.73E+12,468324
6.18E+11,1.73E+12,467170
6.18E+11,1.73E+12,466409
6.18E+11,1.73E+12,465994
6.18E+11,1.73E+12,465432
6.18E+11,1.73E+12,465144
6.18E+11,1.73E+12,464888
6.18E+11,1.73E+12,465720
6.18E+11,1.73E+12,465749
6.18E+11,1.73E+12,465861
6.18E+11,1.73E+12,466219
6.19E+11,1.73E+12,465731
6.19E+11,1.73E+12,464294
6.19E+11,1.73E+12,462649
6.19E+11,1.73E+12,460936
6.19E+11,1.73E+12,459704
6.19E+11,1.73E+12,458800
6.19E+11,1.73E+12,457938
6.19E+11,1.73E+12,457197
6.19E+11,1.73E+12,456612
6.19E+11,1.73E+12,456022
6.19E+11,1.73E+12,1508065
6.19E+11,1.73E+12,1507003
6.19E+11,1.73E+12,1506365
6.19E+11,1.73E+12,1506121
6.19E+11,1.73E+12,1505833
6.19E+11,1.73E+12,1503146
6.19E+11,1.73E+12,1498401
6.19E+11,1.73E+12,1493138
6.19E+11,1.73E+12,1488777
6.19E+11,1.73E+12,1485532
6.19E+11,1.73E+12,1483420
6.19E+11,1.73E+12,1481525
6.19E+11,1.73E+12,1479766
6.19E+11,1.73E+12,1478511
6.19E+11,1.73E+12,1477703
6.20E+11,1.73E+12,1477645
6.20E+11,1.73E+12,1477750
6.20E+11,1.73E+12,1478385
6.20E+11,1.73E+12,1479539
6.20E+11,1.73E+12,1481101
6.20E+11,1.73E+12,1482149
6.20E+11,1.73E+12,1480150
6.20E+11,1.73E+12,1477068
6.20E+11,1.73E+12,1474490
6.20E+11,1.73E+12,1472774
6.20E+11,1.73E+12,1472519
6.20E+11,1.73E+12,1472712
6.20E+11,1.73E+12,1472678
6.20E+11,1.73E+12,1472696
6.20E+11,1.73E+12,1472747
6.20E+11,1.73E+12,1473362
6.20E+11,1.73E+12,1474186
6.20E+11,1.73E+12,1475038
6.20E+11,1.73E+12,1475944
6.20E+11,1.73E+12,1476910
6.20E+11,1.73E+12,1477571
6.20E+11,1.73E+12,1475295
6.20E+11,1.73E+12,1471070
6.20E+11,1.73E+12,1467330
6.20E+11,1.73E+12,1464394
6.21E+11,1.73E+12,1463056
6.21E+11,1.73E+12,1462336
6.21E+11,1.73E+12,1461868
6.21E+11,1.73E+12,1461594
6.21E+11,1.73E+12,1461589
6.21E+11,1.73E+12,1461867
6.21E+11,1.73E+12,1462679
6.21E+11,1.73E+12,1463566
6.21E+11,1.73E+12,1464834
6.21E+11,1.73E+12,1466183
6.21E+11,1.73E+12,1466820
6.21E+11,1.73E+12,1464133
6.21E+11,1.73E+12,1460426
6.21E+11,1.73E+12,1457242
6.21E+11,1.73E+12,1455009
6.21E+11,1.73E+12,1454347
6.21E+11,1.73E+12,1453960
6.21E+11,1.73E+12,1453555
6.21E+11,1.73E+12,1453539
6.21E+11,1.73E+12,1453707
6.21E+11,1.73E+12,1454116
6.21E+11,1.73E+12,1455100
6.21E+11,1.73E+12,1456268
6.21E+11,1.73E+12,1457332
6.21E+11,1.73E+12,1458721
6.22E+11,1.73E+12,1459356
6.22E+11,1.73E+12,1456811
6.22E+11,1.73E+12,1453194
6.22E+11,1.73E+12,1450006
6.22E+11,1.73E+12,1448153
6.22E+11,1.73E+12,1447541
6.22E+11,1.73E+12,1447522
6.22E+11,1.73E+12,1447448
6.22E+11,1.73E+12,1447494
6.22E+11,1.73E+12,1447809
6.22E+11,1.73E+12,1448788
6.22E+11,1.73E+12,1450252
6.22E+11,1.73E+12,1451593
6.22E+11,1.73E+12,1453114
6.22E+11,1.73E+12,1454751
6.22E+11,1.73E+12,1455330
6.22E+11,1.73E+12,1453224
6.22E+11,1.73E+12,1450204
6.22E+11,1.73E+12,1448218
6.22E+11,1.73E+12,1446967
6.22E+11,1.73E+12,1447201
6.22E+11,1.73E+12,1447783
6.22E+11,1.73E+12,1448261
6.22E+11,1.73E+12,1448697
6.22E+11,1.73E+12,1449700
6.23E+11,1.73E+12,1451045
6.23E+11,1.73E+12,1452608
6.23E+11,1.73E+12,1454422
6.23E+11,1.73E+12,1456348
6.23E+11,1.73E+12,1458356
6.23E+11,1.73E+12,1459542
6.23E+11,1.73E+12,1457991
6.23E+11,1.73E+12,1455529
6.23E+11,1.73E+12,1453991
6.23E+11,1.73E+12,1453469
6.23E+11,1.73E+12,1454189
6.23E+11,1.73E+12,1455150
6.23E+11,1.73E+12,1456108
6.23E+11,1.73E+12,1456856
6.23E+11,1.73E+12,1458078
6.23E+11,1.73E+12,1459831
6.23E+11,1.73E+12,1461507
6.23E+11,1.73E+12,1463606
6.23E+11,1.73E+12,1465902
6.23E+11,1.73E+12,1468281
6.23E+11,1.73E+12,1468879
6.23E+11,1.73E+12,1467479
6.23E+11,1.73E+12,1466206
6.23E+11,1.73E+12,1465669
6.23E+11,1.73E+12,1466337
6.24E+11,1.73E+12,1467731
6.24E+11,1.73E+12,1468957
6.24E+11,1.73E+12,1470331
6.24E+11,1.73E+12,1471724
6.24E+11,1.73E+12,1473396
6.24E+11,1.73E+12,1475350
6.24E+11,1.73E+12,1477503
6.24E+11,1.73E+12,1479698
6.24E+11,1.73E+12,1482210
6.24E+11,1.73E+12,1483700
6.24E+11,1.73E+12,1483164
6.24E+11,1.73E+12,1482286
6.24E+11,1.73E+12,1482046
6.24E+11,1.73E+12,1482847
6.24E+11,1.73E+12,1484591
6.24E+11,1.73E+12,1486415
6.24E+11,1.73E+12,1487821
6.24E+11,1.73E+12,1489428
6.24E+11,1.73E+12,1491142
6.24E+11,1.73E+12,1493309
6.24E+11,1.73E+12,1495499
6.24E+11,1.73E+12,1497841
6.24E+11,1.73E+12,1500175
6.24E+11,1.73E+12,1501681
6.24E+11,1.73E+12,1501049
6.25E+11,1.73E+12,1500421
6.25E+11,1.73E+12,1500734
6.25E+11,1.73E+12,1502003
6.25E+11,1.73E+12,1503734
6.25E+11,1.73E+12,1505225
6.25E+11,1.73E+12,1506800
6.25E+11,1.73E+12,1508396
6.25E+11,1.73E+12,1510355
6.25E+11,1.73E+12,1512425
6.25E+11,1.73E+12,1514656
6.25E+11,1.73E+12,1517034
6.25E+11,1.73E+12,1519226
6.25E+11,1.73E+12,1519563
6.25E+11,1.73E+12,1518814
6.25E+11,1.73E+12,1518706
6.25E+11,1.73E+12,1519487
6.25E+11,1.73E+12,1521042
6.25E+11,1.73E+12,1522744
6.25E+11,1.73E+12,1524341
6.25E+11,1.73E+12,1525939
6.25E+11,1.73E+12,1527433
6.25E+11,1.73E+12,1529150
6.25E+11,1.73E+12,1531056
6.25E+11,1.73E+12,1533290
6.25E+11,1.73E+12,1535587
6.26E+11,1.73E+12,1536965
6.26E+11,1.73E+12,1536403
6.26E+11,1.73E+12,1535638
6.26E+11,1.73E+12,1535955
6.26E+11,1.73E+12,1536997
6.26E+11,1.73E+12,1538596
6.26E+11,1.73E+12,1540196
6.26E+11,1.73E+12,1541630
6.26E+11,1.73E+12,1542855
6.26E+11,1.73E+12,1544371
6.26E+11,1.73E+12,1546275
6.26E+11,1.73E+12,1548189
6.26E+11,1.73E+12,1550228
6.26E+11,1.73E+12,1551925
6.26E+11,1.73E+12,1552229
6.26E+11,1.73E+12,1551825
6.26E+11,1.73E+12,1552076
6.26E+11,1.73E+12,1553174
6.26E+11,1.73E+12,1554738
6.26E+11,1.73E+12,1556320
6.26E+11,1.73E+12,1557641
6.26E+11,1.73E+12,1559056
6.26E+11,1.73E+12,1560437
6.26E+11,1.73E+12,1562099
6.26E+11,1.73E+12,1564034
6.27E+11,1.73E+12,1565838
6.27E+11,1.73E+12,1567715
6.27E+11,1.73E+12,1568452
6.27E+11,1.73E+12,1568074
6.27E+11,1.73E+12,1568227
6.27E+11,1.73E+12,1569128
6.27E+11,1.73E+12,1570930
6.27E+11,1.73E+12,1572713
6.27E+11,1.73E+12,1574362
6.27E+11,1.73E+12,1575658
6.27E+11,1.73E+12,1576995
6.27E+11,1.73E+12,1578521
6.27E+11,1.73E+12,1580240
6.27E+11,1.73E+12,1582110
6.27E+11,1.73E+12,1583863
6.27E+11,1.73E+12,1584019
6.27E+11,1.73E+12,1583487
6.27E+11,1.73E+12,1583446
6.27E+11,1.73E+12,1584385
6.27E+11,1.73E+12,1585891
6.27E+11,1.73E+12,1587583
6.27E+11,1.73E+12,1589054
6.27E+11,1.73E+12,1590417
6.27E+11,1.73E+12,1591863
6.27E+11,1.73E+12,1593562
6.28E+11,1.73E+12,1595494
6.28E+11,1.73E+12,1597499
6.28E+11,1.73E+12,1598779
6.28E+11,1.73E+12,1598498
6.28E+11,1.73E+12,1597919
6.28E+11,1.73E+12,1598341
6.28E+11,1.73E+12,1599465
6.28E+11,1.73E+12,1600896
6.28E+11,1.73E+12,1602036
6.28E+11,1.73E+12,1603251
6.28E+11,1.73E+12,1604313
6.28E+11,1.73E+12,1605597
6.28E+11,1.73E+12,1607051
6.28E+11,1.73E+12,1608628
6.28E+11,1.73E+12,1609963
6.28E+11,1.73E+12,1609842
6.28E+11,1.73E+12,1608920
6.28E+11,1.73E+12,1608474
6.28E+11,1.73E+12,1608887
6.28E+11,1.73E+12,1609674
6.28E+11,1.73E+12,1610721
6.28E+11,1.73E+12,1611438
6.28E+11,1.73E+12,1612213
6.28E+11,1.73E+12,1612984
6.28E+11,1.73E+12,1614008
6.29E+11,1.73E+12,1615140
6.29E+11,1.73E+12,1616499
6.29E+11,1.73E+12,1617031
6.29E+11,1.73E+12,1616203
6.29E+11,1.73E+12,1615586
6.29E+11,1.73E+12,1615609
6.29E+11,1.73E+12,1616266
6.29E+11,1.73E+12,1617063
6.29E+11,1.73E+12,1617878
6.29E+11,1.73E+12,1618376
6.29E+11,1.73E+12,1619134
6.29E+11,1.73E+12,1619928
6.29E+11,1.73E+12,1621022
6.29E+11,1.73E+12,1622157
6.29E+11,1.73E+12,1622756
6.29E+11,1.73E+12,1621895
6.29E+11,1.73E+12,1620738
6.29E+11,1.73E+12,1620262
6.29E+11,1.73E+12,1620396
6.29E+11,1.73E+12,1621646
6.29E+11,1.73E+12,1622546
6.29E+11,1.73E+12,1623515
6.29E+11,1.73E+12,1624213
6.29E+11,1.73E+12,1625323
6.29E+11,1.73E+12,1627183
6.30E+11,1.73E+12,1630144
6.30E+11,1.73E+12,1632836
6.30E+11,1.73E+12,1634026
6.30E+11,1.73E+12,1634995
6.30E+11,1.73E+12,1636588
6.30E+11,1.73E+12,1639373
6.30E+11,1.73E+12,1642919
6.30E+11,1.73E+12,1647040
6.30E+11,1.73E+12,1651404
6.30E+11,1.73E+12,1656081
6.30E+11,1.73E+12,1660498
6.30E+11,1.73E+12,1663542
6.30E+11,1.73E+12,1666661
6.30E+11,1.73E+12,1685268
6.30E+11,1.73E+12,1695368
6.30E+11,1.73E+12,1702546
6.30E+11,1.73E+12,1713957
6.30E+11,1.73E+12,1730129
6.30E+11,1.73E+12,1748737
6.30E+11,1.73E+12,1762355
6.30E+11,1.73E+12,1765227
6.30E+11,1.73E+12,1770155
6.30E+11,1.73E+12,1773324
6.30E+11,1.73E+12,1778455
6.30E+11,1.73E+12,1773758
6.31E+11,1.73E+12,1752413
6.31E+11,1.73E+12,1738412
6.31E+11,1.73E+12,1727282
6.31E+11,1.73E+12,1718600
6.31E+11,1.73E+12,1711484
6.31E+11,1.73E+12,1705699
6.31E+11,1.73E+12,1699570
6.31E+11,1.73E+12,1694768
6.31E+11,1.73E+12,1690118
6.31E+11,1.73E+12,1686407
6.31E+11,1.73E+12,1683296
6.31E+11,1.73E+12,1680543
6.31E+11,1.73E+12,1677254
6.31E+11,1.73E+12,1672044
6.31E+11,1.73E+12,1666658
6.31E+11,1.73E+12,1662053
6.31E+11,1.73E+12,1658085
6.31E+11,1.73E+12,1655450
6.31E+11,1.73E+12,1652319
6.31E+11,1.73E+12,1649028
6.31E+11,1.73E+12,1645687
6.31E+11,1.73E+12,1642729
6.31E+11,1.73E+12,1639813
6.31E+11,1.73E+12,1637713
6.31E+11,1.73E+12,1635560
6.32E+11,1.73E+12,1631131
6.32E+11,1.73E+12,1625666
6.32E+11,1.73E+12,1620983
6.32E+11,1.73E+12,1618059
6.32E+11,1.73E+12,1616226
6.32E+11,1.73E+12,1614623
6.32E+11,1.73E+12,1612644
6.32E+11,1.73E+12,1610716
6.32E+11,1.73E+12,1609465
6.32E+11,1.73E+12,1608339
6.32E+11,1.73E+12,1607326
6.32E+11,1.73E+12,1606318
6.32E+11,1.73E+12,1602906
6.32E+11,1.73E+12,1598614
6.32E+11,1.73E+12,1595070
6.32E+11,1.73E+12,1592880
6.32E+11,1.73E+12,1591391
6.32E+11,1.73E+12,1590026
6.32E+11,1.73E+12,1588431
6.32E+11,1.73E+12,1586845
6.32E+11,1.73E+12,1585904
6.32E+11,1.73E+12,1585445
6.32E+11,1.73E+12,1585292
6.32E+11,1.73E+12,1584938
6.32E+11,1.73E+12,1582653
6.33E+11,1.73E+12,1579767
6.33E+11,1.73E+12,1577821
6.33E+11,1.73E+12,1577069
6.33E+11,1.73E+12,1577591
6.33E+11,1.73E+12,1578166
6.33E+11,1.73E+12,1578296
6.33E+11,1.73E+12,1578778
6.33E+11,1.73E+12,1579295
6.33E+11,1.73E+12,1579796
6.33E+11,1.73E+12,1580783
6.33E+11,1.73E+12,1580446
6.33E+11,1.73E+12,1578355
6.33E+11,1.73E+12,1575898
6.33E+11,1.73E+12,1573768
6.33E+11,1.73E+12,1572914
6.33E+11,1.73E+12,1573210
6.33E+11,1.73E+12,1573262
6.33E+11,1.73E+12,1573372
6.33E+11,1.73E+12,1573430
6.33E+11,1.73E+12,1573911
6.33E+11,1.73E+12,1574733
6.33E+11,1.73E+12,1575831
6.33E+11,1.73E+12,1575850
6.33E+11,1.73E+12,1573808
6.33E+11,1.73E+12,1570998
6.34E+11,1.73E+12,1568479
6.34E+11,1.73E+12,1566879
6.34E+11,1.73E+12,1566322
6.34E+11,1.73E+12,1566166
6.34E+11,1.73E+12,1565992
6.34E+11,1.73E+12,1566044
6.34E+11,1.73E+12,1566117
6.34E+11,1.73E+12,1566379
6.34E+11,1.73E+12,1567123
6.34E+11,1.73E+12,1567642
6.34E+11,1.73E+12,1565748
6.34E+11,1.73E+12,1562542
6.34E+11,1.73E+12,1559575
6.34E+11,1.73E+12,1557570
6.34E+11,1.73E+12,1556603
6.34E+11,1.73E+12,1556477
6.34E+11,1.73E+12,1556155
6.34E+11,1.73E+12,1556060
6.34E+11,1.73E+12,1556139
6.34E+11,1.73E+12,1556696
6.34E+11,1.73E+12,1557198
6.34E+11,1.73E+12,1558098
6.34E+11,1.73E+12,1558073
6.34E+11,1.73E+12,1555818
6.34E+11,1.73E+12,1552443
6.35E+11,1.73E+12,1549695
6.35E+11,1.73E+12,1547746
6.35E+11,1.73E+12,1547025
6.35E+11,1.73E+12,1547068
6.35E+11,1.73E+12,1546945
6.35E+11,1.73E+12,1546952
6.35E+11,1.73E+12,1547323
6.35E+11,1.73E+12,1548105
6.35E+11,1.73E+12,1549179
6.35E+11,1.73E+12,1550413
6.35E+11,1.73E+12,1551539
6.35E+11,1.73E+12,1550330
6.35E+11,1.73E+12,1547481
6.35E+11,1.73E+12,1544605
6.35E+11,1.73E+12,1542630
6.35E+11,1.73E+12,1541685
6.35E+11,1.73E+12,1541765
6.35E+11,1.73E+12,1542020
6.35E+11,1.73E+12,1542563
6.35E+11,1.73E+12,1543128
6.35E+11,1.73E+12,1544032
6.35E+11,1.73E+12,1545138
6.35E+11,1.73E+12,1546657
6.35E+11,1.73E+12,1548069
6.35E+11,1.73E+12,1549678
6.36E+11,1.73E+12,1551424
6.36E+11,1.73E+12,1552922
6.36E+11,1.73E+12,1552365
6.36E+11,1.73E+12,1549959
6.36E+11,1.73E+12,1547383
6.36E+11,1.73E+12,1545892
6.36E+11,1.73E+12,1545332
6.36E+11,1.73E+12,1545848
6.36E+11,1.73E+12,1546417
6.36E+11,1.73E+12,1547087
6.36E+11,1.73E+12,1547957
6.36E+11,1.73E+12,1549081
6.36E+11,1.73E+12,1550296
6.36E+11,1.73E+12,1552035
6.36E+11,1.73E+12,1553859
6.36E+11,1.73E+12,1555843
6.36E+11,1.73E+12,1557777
6.36E+11,1.73E+12,1559617
6.36E+11,1.73E+12,1561683
6.36E+11,1.73E+12,1564004
6.36E+11,1.73E+12,1566224
6.36E+11,1.73E+12,1568469
6.36E+11,1.73E+12,1570664
6.36E+11,1.73E+12,1573019
6.36E+11,1.73E+12,1574352
6.37E+11,1.73E+12,1573286
6.37E+11,1.73E+12,1571593
6.37E+11,1.73E+12,1570258
6.37E+11,1.73E+12,1569773
6.37E+11,1.73E+12,1570073
6.37E+11,1.73E+12,1570669
6.37E+11,1.73E+12,1571238
6.37E+11,1.73E+12,1571967
6.37E+11,1.73E+12,1572938
6.37E+11,1.73E+12,1574241
6.37E+11,1.73E+12,1575627
6.37E+11,1.73E+12,1577081
6.37E+11,1.73E+12,1578860
6.37E+11,1.73E+12,1580698
6.37E+11,1.73E+12,1582562
6.37E+11,1.73E+12,1584780
6.37E+11,1.73E+12,1586671
6.37E+11,1.73E+12,1587959
6.37E+11,1.73E+12,1587420
6.37E+11,1.73E+12,1586531
6.37E+11,1.73E+12,1585793
6.37E+11,1.73E+12,1585879
6.37E+11,1.73E+12,1586784
6.37E+11,1.73E+12,1587735
6.37E+11,1.73E+12,1588694
6.38E+11,1.73E+12,1589843
6.38E+11,1.73E+12,1591154
6.38E+11,1.73E+12,1592417
6.38E+11,1.73E+12,1594210
6.38E+11,1.73E+12,1595894
6.38E+11,1.73E+12,1597909
6.38E+11,1.73E+12,1599786
6.38E+11,1.73E+12,1601755
6.38E+11,1.73E+12,1603933
6.38E+11,1.73E+12,1605826
6.38E+11,1.73E+12,1606099
6.38E+11,1.73E+12,1605487
6.38E+11,1.73E+12,1604866
6.38E+11,1.73E+12,1604595
6.38E+11,1.73E+12,1604979
6.38E+11,1.73E+12,1606111
6.38E+11,1.73E+12,1607040
6.38E+11,1.73E+12,1608013
6.38E+11,1.73E+12,1608960
6.38E+11,1.73E+12,1610316
6.38E+11,1.73E+12,1611872
6.38E+11,1.73E+12,1613429
6.38E+11,1.73E+12,1615240
6.38E+11,1.73E+12,1617092
6.38E+11,1.73E+12,1619144
6.39E+11,1.73E+12,1619985
6.39E+11,1.73E+12,1619723
6.39E+11,1.73E+12,1619101
6.39E+11,1.73E+12,1618757
6.39E+11,1.73E+12,1619048
6.39E+11,1.73E+12,1619845
6.39E+11,1.73E+12,1620822
6.39E+11,1.73E+12,1621667
6.39E+11,1.73E+12,1622651
6.39E+11,1.73E+12,1623778
6.39E+11,1.73E+12,1624921
6.39E+11,1.73E+12,1626267
6.39E+11,1.73E+12,1628024
6.39E+11,1.73E+12,1630081
6.39E+11,1.73E+12,1631690
6.39E+11,1.73E+12,1631508
6.39E+11,1.73E+12,1630423
6.39E+11,1.73E+12,1629392
6.39E+11,1.73E+12,1629207
6.39E+11,1.73E+12,1629397
6.39E+11,1.73E+12,1629652
6.39E+11,1.73E+12,1629913
6.39E+11,1.73E+12,1630418
6.39E+11,1.73E+12,1630881
6.39E+11,1.73E+12,1631183
6.40E+11,1.73E+12,1631849
6.40E+11,1.73E+12,1632805
6.40E+11,1.73E+12,1634190
6.40E+11,1.73E+12,1635234
6.40E+11,1.73E+12,1635280
6.40E+11,1.73E+12,1635101
6.40E+11,1.73E+12,1635007
6.40E+11,1.73E+12,1635100
6.40E+11,1.73E+12,1636120
6.40E+11,1.73E+12,1637269
6.40E+11,1.73E+12,1638338
6.40E+11,1.73E+12,1639454
6.40E+11,1.73E+12,1640593
6.40E+11,1.73E+12,1641901
6.40E+11,1.73E+12,1643561
6.40E+11,1.73E+12,1645167
6.40E+11,1.73E+12,1646826
6.40E+11,1.73E+12,1648219
6.40E+11,1.73E+12,1648076
6.40E+11,1.73E+12,1647541
6.40E+11,1.73E+12,1647368
6.40E+11,1.73E+12,1647639
6.40E+11,1.73E+12,1648617
6.40E+11,1.73E+12,1649712
6.40E+11,1.73E+12,1650630
6.41E+11,1.73E+12,1651673
6.41E+11,1.73E+12,1652802
6.41E+11,1.73E+12,1654027
6.41E+11,1.73E+12,1655430
6.41E+11,1.73E+12,1656746
6.41E+11,1.73E+12,1658458
6.41E+11,1.73E+12,1658993
6.41E+11,1.73E+12,1658224
6.41E+11,1.73E+12,1657617
6.41E+11,1.73E+12,1657669
6.41E+11,1.73E+12,1658414
6.41E+11,1.73E+12,1659360
6.41E+11,1.73E+12,1660210
6.41E+11,1.73E+12,1661125
6.41E+11,1.73E+12,1661905
6.41E+11,1.73E+12,1662769
6.41E+11,1.73E+12,1664077
6.41E+11,1.73E+12,1665419
6.41E+11,1.73E+12,1666734
6.41E+11,1.73E+12,1667940
6.41E+11,1.73E+12,1667967
6.41E+11,1.73E+12,1666981
6.41E+11,1.73E+12,1666186
6.41E+11,1.73E+12,1666205
6.41E+11,1.73E+12,1667211
6.42E+11,1.73E+12,1667839
6.42E+11,1.73E+12,1668660
6.42E+11,1.73E+12,1669482
6.42E+11,1.73E+12,1670118
6.42E+11,1.73E+12,1670892
6.42E+11,1.73E+12,1672112
6.42E+11,1.73E+12,1673341
6.42E+11,1.73E+12,1674724
6.42E+11,1.73E+12,1675364
6.42E+11,1.73E+12,1674816
6.42E+11,1.73E+12,1674210
6.42E+11,1.73E+12,1674165
6.42E+11,1.73E+12,1674509
6.42E+11,1.73E+12,1675493
6.42E+11,1.73E+12,1676302
6.42E+11,1.73E+12,1677059
6.42E+11,1.73E+12,1678018
6.42E+11,1.73E+12,1679202
6.42E+11,1.73E+12,1680579
6.42E+11,1.73E+12,1682121
6.42E+11,1.73E+12,1683465
6.42E+11,1.73E+12,1684803
6.42E+11,1.73E+12,1685229
6.42E+11,1.73E+12,1685001
6.42E+11,1.73E+12,1684863
6.43E+11,1.73E+12,1685117
6.43E+11,1.73E+12,1686177
6.43E+11,1.73E+12,1687398
6.43E+11,1.73E+12,1688555
6.43E+11,1.73E+12,1689450
6.43E+11,1.73E+12,1690041
6.43E+11,1.73E+12,1690592
6.43E+11,1.73E+12,1691020
6.43E+11,1.73E+12,1691714
6.43E+11,1.73E+12,1692347
6.43E+11,1.73E+12,1692490
6.43E+11,1.73E+12,1691831
6.43E+11,1.73E+12,1690991
6.43E+11,1.73E+12,1690639
6.43E+11,1.73E+12,1690826
6.43E+11,1.73E+12,1691162
6.43E+11,1.73E+12,1691573
6.43E+11,1.73E+12,1691687
6.43E+11,1.73E+12,1692121
6.43E+11,1.73E+12,1692649
6.43E+11,1.73E+12,1693256
6.43E+11,1.73E+12,1694261
6.43E+11,1.73E+12,1695145
6.43E+11,1.73E+12,1695138
6.43E+11,1.73E+12,1694833
6.44E+11,1.73E+12,1694594
6.44E+11,1.73E+12,1695031
6.44E+11,1.73E+12,1696128
6.44E+11,1.73E+12,1697435
6.44E+11,1.73E+12,1699077
6.44E+11,1.73E+12,1701233
6.44E+11,1.73E+12,1703566
6.44E+11,1.73E+12,1706148
6.44E+11,1.73E+12,1708691
6.44E+11,1.73E+12,1715543
6.44E+11,1.73E+12,1740079
6.44E+11,1.73E+12,1758358
6.44E+11,1.73E+12,1775331
6.44E+11,1.73E+12,1792770
6.44E+11,1.73E+12,1807051
6.44E+11,1.73E+12,1820048
6.44E+11,1.73E+12,1830985
6.44E+11,1.73E+12,1833405
6.44E+11,1.73E+12,1840053
6.44E+11,1.73E+12,1838896
6.44E+11,1.73E+12,1827374
6.44E+11,1.73E+12,1812544
6.44E+11,1.73E+12,1801345
6.44E+11,1.73E+12,1796662
6.44E+11,1.73E+12,1790264
6.45E+11,1.73E+12,1784937
6.45E+11,1.73E+12,1779287
6.45E+11,1.73E+12,1775421
6.45E+11,1.73E+12,1772894
6.45E+11,1.73E+12,1770019
6.45E+11,1.73E+12,1767829
6.45E+11,1.73E+12,1765856
6.45E+11,1.73E+12,1763842
6.45E+11,1.73E+12,1761855
6.45E+11,1.73E+12,1760393
6.45E+11,1.73E+12,1758663
6.45E+11,1.73E+12,1756504
6.45E+11,1.73E+12,1753103
6.45E+11,1.73E+12,1749875
6.45E+11,1.73E+12,1747451
6.45E+11,1.73E+12,1746042
6.45E+11,1.73E+12,1744799
6.45E+11,1.73E+12,1743517
6.45E+11,1.73E+12,1741957
6.45E+11,1.73E+12,1740630
6.45E+11,1.73E+12,1739737
6.45E+11,1.73E+12,1738857
6.45E+11,1.73E+12,1738246
6.45E+11,1.73E+12,1736723
6.45E+11,1.73E+12,1733552
6.46E+11,1.73E+12,1729856
6.46E+11,1.73E+12,1726767
6.46E+11,1.73E+12,1724583
6.46E+11,1.73E+12,1723029
6.46E+11,1.73E+12,1721706
6.46E+11,1.73E+12,1720055
6.46E+11,1.73E+12,1718414
6.46E+11,1.73E+12,1717160
6.46E+11,1.73E+12,1716024
6.46E+11,1.73E+12,1715422
6.46E+11,1.73E+12,1714348
6.46E+11,1.73E+12,1710880
6.46E+11,1.73E+12,1706869
6.46E+11,1.73E+12,1703247
6.46E+11,1.73E+12,1700650
6.46E+11,1.73E+12,1698855
6.46E+11,1.73E+12,1697550
6.46E+11,1.73E+12,1695917
6.46E+11,1.73E+12,1694471
6.46E+11,1.73E+12,1692863
6.46E+11,1.73E+12,1691709
6.46E+11,1.73E+12,1690741
6.46E+11,1.73E+12,1690138
6.46E+11,1.73E+12,1687459
6.46E+11,1.73E+12,1683321
6.47E+11,1.73E+12,1679631
6.47E+11,1.73E+12,1676704
6.47E+11,1.73E+12,1674952
6.47E+11,1.73E+12,1673542
6.47E+11,1.73E+12,1671960
6.47E+11,1.73E+12,1670420
6.47E+11,1.73E+12,1669041
6.47E+11,1.73E+12,1668158
6.47E+11,1.73E+12,1667635
6.47E+11,1.73E+12,1667064
6.47E+11,1.73E+12,1664501
6.47E+11,1.73E+12,1660245
6.47E+11,1.73E+12,1656240
6.47E+11,1.73E+12,1653173
6.47E+11,1.73E+12,1651355
6.47E+11,1.73E+12,1650116
6.47E+11,1.73E+12,1649077
6.47E+11,1.73E+12,1647925
6.47E+11,1.73E+12,1647043
6.47E+11,1.73E+12,1646470
6.47E+11,1.73E+12,1646254
6.47E+11,1.73E+12,1646238
6.47E+11,1.73E+12,1644969
6.47E+11,1.73E+12,1641600
6.47E+11,1.73E+12,1637899
6.48E+11,1.73E+12,1634833
6.48E+11,1.73E+12,1632886
6.48E+11,1.73E+12,1631824
6.48E+11,1.73E+12,1630906
6.48E+11,1.73E+12,1630029
6.48E+11,1.73E+12,1629060
6.48E+11,1.73E+12,1628718
6.48E+11,1.73E+12,1629006
6.48E+11,1.73E+12,1629379
6.48E+11,1.73E+12,1629489
6.48E+11,1.73E+12,1627802
6.48E+11,1.73E+12,1624295
6.48E+11,1.73E+12,1621192
6.48E+11,1.73E+12,1619099
6.48E+11,1.73E+12,1618214
6.48E+11,1.73E+12,1617800
6.48E+11,1.73E+12,1617228
6.48E+11,1.73E+12,1616705
6.48E+11,1.73E+12,1616414
6.48E+11,1.73E+12,1616346
6.48E+11,1.73E+12,1616725
6.48E+11,1.73E+12,1617114
6.48E+11,1.73E+12,1616845
6.48E+11,1.73E+12,1614178
6.48E+11,1.73E+12,1610822
6.49E+11,1.73E+12,1608165
6.49E+11,1.73E+12,1606387
6.49E+11,1.73E+12,1605699
6.49E+11,1.73E+12,1605182
6.49E+11,1.73E+12,1604820
6.49E+11,1.73E+12,1604443
6.49E+11,1.73E+12,1604332
6.49E+11,1.73E+12,1604531
6.49E+11,1.73E+12,1604719
6.49E+11,1.73E+12,1605265
6.49E+11,1.73E+12,1604778
6.49E+11,1.73E+12,1602152
6.49E+11,1.73E+12,1598898
6.49E+11,1.73E+12,1596547
6.49E+11,1.73E+12,1595302
6.49E+11,1.73E+12,1595021
6.49E+11,1.73E+12,1594843
6.49E+11,1.73E+12,1594617
6.49E+11,1.73E+12,1594484
6.49E+11,1.73E+12,1594598
6.49E+11,1.73E+12,1595293
6.49E+11,1.73E+12,1596020
6.49E+11,1.73E+12,1596982
6.49E+11,1.73E+12,1596757
6.49E+11,1.73E+12,1594201
6.50E+11,1.73E+12,1591335
6.50E+11,1.73E+12,1589354
6.50E+11,1.73E+12,1588332
6.50E+11,1.73E+12,1588217
6.50E+11,1.73E+12,1588337
6.50E+11,1.73E+12,1588264
6.50E+11,1.73E+12,1588337
6.50E+11,1.73E+12,1588791
6.50E+11,1.73E+12,1589681
6.50E+11,1.73E+12,1590720
6.50E+11,1.73E+12,1591814
6.50E+11,1.73E+12,1592323
6.50E+11,1.73E+12,1591007
6.50E+11,1.73E+12,1588651
6.50E+11,1.73E+12,1586096
6.50E+11,1.73E+12,1584155
6.50E+11,1.73E+12,1583586
6.50E+11,1.73E+12,1583304
6.50E+11,1.73E+12,1583125
6.50E+11,1.73E+12,1583118
6.50E+11,1.73E+12,1583157
6.50E+11,1.73E+12,1583587
6.50E+11,1.73E+12,1584370
6.50E+11,1.73E+12,1585324
6.51E+11,1.73E+12,1586199
6.51E+11,1.73E+12,1584817
6.51E+11,1.73E+12,1582526
6.51E+11,1.73E+12,1580531
6.51E+11,1.73E+12,1579243
6.51E+11,1.73E+12,1578840
6.51E+11,1.73E+12,1578733
6.51E+11,1.73E+12,1578227
6.51E+11,1.73E+12,1578188
6.51E+11,1.73E+12,1578455
6.51E+11,1.73E+12,1578855
6.51E+11,1.73E+12,1579710
6.51E+11,1.73E+12,1580889
6.51E+11,1.73E+12,1582197
6.51E+11,1.73E+12,1582270
6.51E+11,1.73E+12,1580534
6.51E+11,1.73E+12,1578813
6.51E+11,1.73E+12,1578028
6.51E+11,1.73E+12,1578128
6.51E+11,1.73E+12,1578772
6.51E+11,1.73E+12,1579195
6.51E+11,1.73E+12,1579707
6.51E+11,1.73E+12,1580461
6.51E+11,1.73E+12,1581640
6.51E+11,1.73E+12,1582818
6.52E+11,1.73E+12,1584212
6.52E+11,1.73E+12,1585559
6.52E+11,1.73E+12,1585841
6.52E+11,1.73E+12,1584434
6.52E+11,1.73E+12,1583180
6.52E+11,1.73E+12,1582752
6.52E+11,1.73E+12,1583058
6.52E+11,1.73E+12,1583811
6.52E+11,1.73E+12,1584400
6.52E+11,1.73E+12,1585289
6.52E+11,1.73E+12,1586267
6.52E+11,1.73E+12,1587249
6.52E+11,1.73E+12,1588424
6.52E+11,1.73E+12,1589850
6.52E+11,1.73E+12,1591490
6.52E+11,1.73E+12,1592887
6.52E+11,1.73E+12,1592568
6.52E+11,1.73E+12,1591377
6.52E+11,1.73E+12,1590568
6.52E+11,1.73E+12,1590680
6.52E+11,1.73E+12,1591301
6.52E+11,1.73E+12,1591329
6.52E+11,1.73E+12,1591271
6.52E+11,1.73E+12,1591117
6.52E+11,1.73E+12,1591079
6.53E+11,1.73E+12,1590511
6.53E+11,1.73E+12,1590429
6.53E+11,1.73E+12,1590114
6.53E+11,1.73E+12,1589588
6.53E+11,1.73E+12,1587726
6.53E+11,1.73E+12,1585092
6.53E+11,1.73E+12,1583549
6.53E+11,1.73E+12,1583439
6.53E+11,1.73E+12,1584200
6.53E+11,1.73E+12,1585150
6.53E+11,1.73E+12,1586991
6.53E+11,1.73E+12,1589106
6.53E+11,1.73E+12,1591314
6.53E+11,1.73E+12,1593999
6.53E+11,1.73E+12,1597007
6.53E+11,1.73E+12,1600022
6.53E+11,1.73E+12,1603159
6.53E+11,1.73E+12,1605284
6.53E+11,1.73E+12,1606038
6.53E+11,1.73E+12,1606789
6.53E+11,1.73E+12,1608388
6.53E+11,1.73E+12,1610793
6.53E+11,1.73E+12,1613119
6.53E+11,1.73E+12,1615196
6.53E+11,1.73E+12,1617181
6.54E+11,1.73E+12,1619081
6.54E+11,1.73E+12,1621123
6.54E+11,1.73E+12,1623524
6.54E+11,1.73E+12,1626124
6.54E+11,1.73E+12,1628337
6.54E+11,1.73E+12,1629599
6.54E+11,1.73E+12,1630141
6.54E+11,1.73E+12,1630741
6.54E+11,1.73E+12,1631968
6.54E+11,1.73E+12,1633857
6.54E+11,1.73E+12,1635851
6.54E+11,1.73E+12,1637414
6.54E+11,1.73E+12,1638936
6.54E+11,1.73E+12,1640322
6.54E+11,1.73E+12,1641887
6.54E+11,1.73E+12,1643831
6.54E+11,1.73E+12,1645950
6.54E+11,1.73E+12,1647535
6.54E+11,1.73E+12,1647819
6.54E+11,1.73E+12,1647765
6.54E+11,1.73E+12,1648116
6.54E+11,1.73E+12,1649402
6.54E+11,1.73E+12,1651092
6.54E+11,1.73E+12,1652466
6.54E+11,1.73E+12,1653878
6.55E+11,1.73E+12,1655432
6.55E+11,1.73E+12,1656943
6.55E+11,1.73E+12,1658419
6.55E+11,1.73E+12,1660198
6.55E+11,1.73E+12,1661852
6.55E+11,1.73E+12,1662305
6.55E+11,1.73E+12,1661605
6.55E+11,1.73E+12,1661056
6.55E+11,1.73E+12,1660994
6.55E+11,1.73E+12,1661497
6.55E+11,1.73E+12,1662025
6.55E+11,1.73E+12,1662347
6.55E+11,1.73E+12,1663001
6.55E+11,1.73E+12,1663960
6.55E+11,1.73E+12,1665967
6.55E+11,1.73E+12,1668218
6.55E+11,1.73E+12,1670757
6.55E+11,1.73E+12,1673004
6.55E+11,1.73E+12,1674846
6.55E+11,1.73E+12,1677589
6.55E+11,1.73E+12,1681703
6.55E+11,1.73E+12,1687140
6.55E+11,1.73E+12,1691618
6.55E+11,1.73E+12,1694884
6.55E+11,1.73E+12,1697610
6.56E+11,1.73E+12,1714127
6.56E+11,1.73E+12,1734912
6.56E+11,1.73E+12,1746569
6.56E+11,1.73E+12,1761914
6.56E+11,1.73E+12,1770513
6.56E+11,1.73E+12,1776460
6.56E+11,1.73E+12,1785431
6.56E+11,1.73E+12,1796468
6.56E+11,1.73E+12,1804905
6.56E+11,1.73E+12,1810698
6.56E+11,1.73E+12,1817289
6.56E+11,1.73E+12,1821921
6.56E+11,1.73E+12,1825770
6.56E+11,1.73E+12,1825708
6.56E+11,1.73E+12,1817593
6.56E+11,1.73E+12,1799091
6.56E+11,1.73E+12,1790745
6.56E+11,1.73E+12,1782728
6.56E+11,1.73E+12,1773257
6.56E+11,1.73E+12,1765661
6.56E+11,1.73E+12,1759994
6.56E+11,1.73E+12,1755119
6.56E+11,1.73E+12,1750831
6.56E+11,1.73E+12,1746564
6.56E+11,1.73E+12,1742429
6.57E+11,1.73E+12,1738756
6.57E+11,1.73E+12,1735415
6.57E+11,1.73E+12,1732224
6.57E+11,1.73E+12,1728263
6.57E+11,1.73E+12,1722367
6.57E+11,1.73E+12,1716370
6.57E+11,1.73E+12,1711092
6.57E+11,1.73E+12,1706965
6.57E+11,1.73E+12,1702832
6.57E+11,1.73E+12,1698720
6.57E+11,1.73E+12,1694312
6.57E+11,1.73E+12,1690045
6.57E+11,1.73E+12,1686351
6.57E+11,1.73E+12,1683058
6.57E+11,1.73E+12,1679677
6.57E+11,1.73E+12,1675740
6.57E+11,1.73E+12,1670136
6.57E+11,1.73E+12,1663853
6.57E+11,1.73E+12,1658433
6.57E+11,1.73E+12,1654497
6.57E+11,1.73E+12,1650896
6.57E+11,1.73E+12,1647220
6.57E+11,1.73E+12,1643158
6.57E+11,1.73E+12,1639108
6.57E+11,1.73E+12,1635538
6.58E+11,1.73E+12,1632592
6.58E+11,1.73E+12,1630296
6.58E+11,1.73E+12,1626908
6.58E+11,1.73E+12,1621982
6.58E+11,1.73E+12,1617002
6.58E+11,1.73E+12,1612999
6.58E+11,1.73E+12,1610137
6.58E+11,1.73E+12,1607932
6.58E+11,1.73E+12,1605342
6.58E+11,1.73E+12,1602625
6.58E+11,1.73E+12,1600377
6.58E+11,1.73E+12,1598533
6.58E+11,1.73E+12,1597110
6.58E+11,1.73E+12,1595770
6.58E+11,1.73E+12,1593594
6.58E+11,1.73E+12,1589196
6.58E+11,1.73E+12,1584670
6.58E+11,1.73E+12,1581300
6.58E+11,1.73E+12,1578774
6.58E+11,1.73E+12,1577434
6.58E+11,1.73E+12,1575762
6.58E+11,1.73E+12,1573948
6.58E+11,1.73E+12,1572571
6.58E+11,1.73E+12,1571679
6.58E+11,1.73E+12,1571380
6.59E+11,1.73E+12,1571478
6.59E+11,1.73E+12,1570912
6.59E+11,1.73E+12,1567801
6.59E+11,1.73E+12,1564829
6.59E+11,1.73E+12,1562439
6.59E+11,1.73E+12,1561223
6.59E+11,1.73E+12,1560615
6.59E+11,1.73E+12,1559817
6.59E+11,1.73E+12,1558781
6.59E+11,1.73E+12,1557779
6.59E+11,1.73E+12,1557634
6.59E+11,1.73E+12,1557759
6.59E+11,1.73E+12,1558158
6.59E+11,1.73E+12,1558516
6.59E+11,1.73E+12,1556528
6.59E+11,1.73E+12,1553789
6.59E+11,1.73E+12,1551578
6.59E+11,1.73E+12,1550705
6.59E+11,1.73E+12,1550727
6.59E+11,1.73E+12,1550678
6.59E+11,1.73E+12,1550602
6.59E+11,1.73E+12,1550565
6.59E+11,1.73E+12,1550791
6.59E+11,1.73E+12,1551139
6.59E+11,1.73E+12,1552044
6.60E+11,1.73E+12,1552831
6.60E+11,1.73E+12,1552727
6.60E+11,1.73E+12,1550582
6.60E+11,1.73E+12,1548332
6.60E+11,1.73E+12,1546841
6.60E+11,1.73E+12,1546670
6.60E+11,1.73E+12,1547112
6.60E+11,1.73E+12,1547348
6.60E+11,1.73E+12,1547724
6.60E+11,1.73E+12,1547607
6.60E+11,1.73E+12,1548132
6.60E+11,1.73E+12,1549149
6.60E+11,1.73E+12,1550340
6.60E+11,1.73E+12,1551612
6.60E+11,1.73E+12,1551387
6.60E+11,1.73E+12,1549952
6.60E+11,1.73E+12,1549094
6.60E+11,1.73E+12,1549044
6.60E+11,1.73E+12,1549945
6.60E+11,1.73E+12,1550929
6.60E+11,1.73E+12,1552145
6.60E+11,1.73E+12,1553414
6.60E+11,1.73E+12,1554812
6.60E+11,1.73E+12,1556519
6.60E+11,1.73E+12,1558277
6.61E+11,1.73E+12,1560310
6.61E+11,1.73E+12,1561738
6.61E+11,1.73E+12,1561440
6.61E+11,1.73E+12,1560434
6.61E+11,1.73E+12,1560314
6.61E+11,1.73E+12,1560893
6.61E+11,1.73E+12,1562301
6.61E+11,1.73E+12,1563446
6.61E+11,1.73E+12,1564352
6.61E+11,1.73E+12,1565444
6.61E+11,1.73E+12,1566558
6.61E+11,1.73E+12,1568149
6.61E+11,1.73E+12,1569662
6.61E+11,1.73E+12,1571589
6.61E+11,1.73E+12,1571824
6.61E+11,1.73E+12,1570630
6.61E+11,1.73E+12,1569793
6.61E+11,1.73E+12,1569708
6.61E+11,1.73E+12,1570656
6.61E+11,1.73E+12,1571941
6.61E+11,1.73E+12,1573130
6.61E+11,1.73E+12,1574088
6.61E+11,1.73E+12,1575472
6.61E+11,1.73E+12,1576698
6.61E+11,1.73E+12,1578479
6.62E+11,1.73E+12,1580258
6.62E+11,1.73E+12,1581608
6.62E+11,1.73E+12,1580924
6.62E+11,1.73E+12,1579635
6.62E+11,1.73E+12,1579460
6.62E+11,1.73E+12,1579868
6.62E+11,1.73E+12,1581032
6.62E+11,1.73E+12,1582146
6.62E+11,1.73E+12,1582977
6.62E+11,1.73E+12,1583964
6.62E+11,1.73E+12,1585119
6.62E+11,1.73E+12,1586581
6.62E+11,1.73E+12,1588254
6.62E+11,1.73E+12,1589534
6.62E+11,1.73E+12,1589279
6.62E+11,1.73E+12,1587919
6.62E+11,1.73E+12,1586877
6.62E+11,1.73E+12,1586701
6.62E+11,1.73E+12,1587302
6.62E+11,1.73E+12,1588050
6.62E+11,1.73E+12,1588311
6.62E+11,1.73E+12,1588181
6.62E+11,1.73E+12,1588270
6.62E+11,1.73E+12,1589143
6.62E+11,1.73E+12,1590077
6.63E+11,1.73E+12,1591283
6.63E+11,1.73E+12,1591624
6.63E+11,1.73E+12,1590286
6.63E+11,1.73E+12,1588706
6.63E+11,1.73E+12,1587750
6.63E+11,1.73E+12,1587737
6.63E+11,1.73E+12,1588344
6.63E+11,1.73E+12,1588832
6.63E+11,1.73E+12,1589629
6.63E+11,1.73E+12,1590465
6.63E+11,1.73E+12,1591973
6.63E+11,1.73E+12,1593653
6.63E+11,1.73E+12,1595349
6.63E+11,1.73E+12,1596894
6.63E+11,1.73E+12,1596584
6.63E+11,1.73E+12,1594874
6.63E+11,1.73E+12,1593026
6.63E+11,1.73E+12,1591841
6.63E+11,1.73E+12,1591806
6.63E+11,1.73E+12,1592075
6.63E+11,1.73E+12,1592390
6.63E+11,1.73E+12,1592561
6.63E+11,1.73E+12,1592761
6.63E+11,1.73E+12,1593255
6.63E+11,1.73E+12,1593775
6.64E+11,1.73E+12,1594686
6.64E+11,1.73E+12,1594967
6.64E+11,1.73E+12,1593787
6.64E+11,1.73E+12,1592202
6.64E+11,1.73E+12,1591129
6.64E+11,1.73E+12,1591003
6.64E+11,1.73E+12,1591358
6.64E+11,1.73E+12,1591302
6.64E+11,1.73E+12,1591517
6.64E+11,1.73E+12,1591995
6.64E+11,1.73E+12,1593043
6.64E+11,1.73E+12,1594448
6.64E+11,1.73E+12,1595927
6.64E+11,1.73E+12,1597418
6.64E+11,1.73E+12,1597455
6.64E+11,1.73E+12,1596192
6.64E+11,1.73E+12,1594845
6.64E+11,1.73E+12,1594444
6.64E+11,1.73E+12,1594697
6.64E+11,1.73E+12,1595335
6.64E+11,1.73E+12,1595807
6.64E+11,1.73E+12,1596231
6.64E+11,1.73E+12,1596872
6.64E+11,1.73E+12,1597926
6.64E+11,1.73E+12,1599457
6.65E+11,1.73E+12,1600847
6.65E+11,1.73E+12,1601744
6.65E+11,1.73E+12,1601232
6.65E+11,1.73E+12,1600246
6.65E+11,1.73E+12,1599650
6.65E+11,1.73E+12,1599626
6.65E+11,1.73E+12,1600205
6.65E+11,1.73E+12,1600805
6.65E+11,1.73E+12,1601246
6.65E+11,1.73E+12,1601720
6.65E+11,1.73E+12,1602726
6.65E+11,1.73E+12,1604125
6.65E+11,1.73E+12,1605865
6.65E+11,1.73E+12,1607286
6.65E+11,1.73E+12,1607405
6.65E+11,1.73E+12,1605841
6.65E+11,1.73E+12,1603819
6.65E+11,1.73E+12,1602343
6.65E+11,1.73E+12,1602178
6.65E+11,1.73E+12,1602935
6.65E+11,1.73E+12,1603342
6.65E+11,1.73E+12,1602282
6.65E+11,1.73E+12,1600976
6.65E+11,1.73E+12,1600700
6.65E+11,1.73E+12,1601809
6.66E+11,1.73E+12,1603536
6.66E+11,1.73E+12,1605350
6.66E+11,1.73E+12,1605399
6.66E+11,1.73E+12,1604139
6.66E+11,1.73E+12,1603270
6.66E+11,1.73E+12,1602679
6.66E+11,1.73E+12,1602476
6.66E+11,1.73E+12,1602723
6.66E+11,1.73E+12,1602331
6.66E+11,1.73E+12,1601809
6.66E+11,1.73E+12,1601323
6.66E+11,1.73E+12,1601513
6.66E+11,1.73E+12,1601826
6.66E+11,1.73E+12,1602389
6.66E+11,1.73E+12,1602316
6.66E+11,1.73E+12,1600134
6.66E+11,1.73E+12,1597354
6.66E+11,1.73E+12,1595236
6.66E+11,1.73E+12,1593668
6.66E+11,1.73E+12,1592831
6.66E+11,1.73E+12,1591980
6.66E+11,1.73E+12,1590751
6.66E+11,1.73E+12,1589325
6.66E+11,1.73E+12,1587647
6.66E+11,1.73E+12,1585854
6.67E+11,1.73E+12,1584168
6.67E+11,1.73E+12,1582888
6.67E+11,1.73E+12,1580438
6.67E+11,1.73E+12,1575956
6.67E+11,1.73E+12,1571987
6.67E+11,1.73E+12,1569080
6.67E+11,1.73E+12,1566626
6.67E+11,1.73E+12,1565006
6.67E+11,1.73E+12,1563646
6.67E+11,1.73E+12,1562528
6.67E+11,1.73E+12,1562496
6.67E+11,1.73E+12,1562881
6.67E+11,1.73E+12,1564322
6.67E+11,1.73E+12,1566898
6.67E+11,1.73E+12,1571107
6.67E+11,1.73E+12,1577536
6.67E+11,1.73E+12,1581034
6.67E+11,1.73E+12,1587387
6.67E+11,1.73E+12,1611662
6.67E+11,1.73E+12,1641282
6.67E+11,1.73E+12,1665177
6.67E+11,1.73E+12,1688320
6.67E+11,1.73E+12,1706473
6.67E+11,1.73E+12,1718508
6.67E+11,1.73E+12,1726964
6.68E+11,1.73E+12,1738243
6.68E+11,1.73E+12,1746065
6.68E+11,1.73E+12,1755156
6.68E+11,1.73E+12,1761756
6.68E+11,1.73E+12,1761911
6.68E+11,1.73E+12,1734816
6.68E+11,1.73E+12,1718384
6.68E+11,1.73E+12,1710383
6.68E+11,1.73E+12,1705679
6.68E+11,1.73E+12,1702659
6.68E+11,1.73E+12,1700664
6.68E+11,1.73E+12,1699544
6.68E+11,1.73E+12,1698959
6.68E+11,1.73E+12,1698574
6.68E+11,1.73E+12,1698157
6.68E+11,1.73E+12,1696899
6.68E+11,1.73E+12,1693037
6.68E+11,1.73E+12,1689037
6.68E+11,1.73E+12,1685513
6.68E+11,1.73E+12,1682543
6.68E+11,1.73E+12,1680694
6.68E+11,1.73E+12,1678983
6.68E+11,1.73E+12,1677168
6.68E+11,1.73E+12,1675382
6.68E+11,1.73E+12,1673912
6.69E+11,1.73E+12,1673107
6.69E+11,1.73E+12,1672561
6.69E+11,1.73E+12,1672228
6.69E+11,1.73E+12,1670245
6.69E+11,1.73E+12,1666918
6.69E+11,1.73E+12,1663834
6.69E+11,1.73E+12,1661604
6.69E+11,1.73E+12,1660283
6.69E+11,1.73E+12,1659607
6.69E+11,1.73E+12,1658726
6.69E+11,1.73E+12,1657855
6.69E+11,1.73E+12,1657100
6.69E+11,1.73E+12,1656710
6.69E+11,1.73E+12,1656877
6.69E+11,1.73E+12,1657225
6.69E+11,1.73E+12,1656443
6.69E+11,1.73E+12,1653630
6.69E+11,1.73E+12,1650113
6.69E+11,1.73E+12,1647493
6.69E+11,1.73E+12,1645389
6.69E+11,1.73E+12,1644360
6.69E+11,1.73E+12,1643349
6.69E+11,1.73E+12,1642374
6.69E+11,1.73E+12,1641118
6.69E+11,1.73E+12,1640291
6.70E+11,1.73E+12,1640065
6.70E+11,1.73E+12,1640039
6.70E+11,1.73E+12,1639807
6.70E+11,1.73E+12,1638016
6.70E+11,1.73E+12,1634625
6.70E+11,1.73E+12,1631082
6.70E+11,1.73E+12,1628800
6.70E+11,1.73E+12,1627352
6.70E+11,1.73E+12,1626611
6.70E+11,1.73E+12,1625857
6.70E+11,1.73E+12,1625208
6.70E+11,1.73E+12,1624539
6.70E+11,1.73E+12,1624227
6.70E+11,1.73E+12,1624296
6.70E+11,1.73E+12,1624576
6.70E+11,1.73E+12,1624772
6.70E+11,1.73E+12,1623107
6.70E+11,1.73E+12,1619724
6.70E+11,1.73E+12,1616424
6.70E+11,1.73E+12,1613973
6.70E+11,1.73E+12,1612385
6.70E+11,1.73E+12,1611601
6.70E+11,1.73E+12,1610720
6.70E+11,1.73E+12,1609574
6.70E+11,1.73E+12,1608561
6.71E+11,1.73E+12,1607824
6.71E+11,1.73E+12,1606898
6.71E+11,1.73E+12,1605433
6.71E+11,1.73E+12,1602542
6.71E+11,1.73E+12,1599866
6.71E+11,1.73E+12,1595531
6.71E+11,1.73E+12,1584991
6.71E+11,1.73E+12,1580455
6.71E+11,1.73E+12,1573163
6.71E+11,1.73E+12,1566895
6.71E+11,1.73E+12,1559030
6.71E+11,1.73E+12,1552033
6.71E+11,1.73E+12,1547805
6.71E+11,1.73E+12,1544752
6.71E+11,1.73E+12,1542101
6.71E+11,1.73E+12,1542072
6.71E+11,1.73E+12,1544663
6.71E+11,1.73E+12,1549310
6.71E+11,1.73E+12,1555041
6.71E+11,1.73E+12,1560166
6.71E+11,1.73E+12,1564908
6.71E+11,1.73E+12,1569411
6.71E+11,1.73E+12,1574008
6.71E+11,1.73E+12,1578603
6.71E+11,1.73E+12,1582232
6.72E+11,1.73E+12,1584862
6.72E+11,1.73E+12,1587211
6.72E+11,1.73E+12,1588438
6.72E+11,1.73E+12,1589567
6.72E+11,1.73E+12,1589945
6.72E+11,1.73E+12,1589737
6.72E+11,1.73E+12,1587923
6.72E+11,1.73E+12,1585889
6.72E+11,1.73E+12,1584712
6.72E+11,1.73E+12,1584277
6.72E+11,1.73E+12,1584102
6.72E+11,1.73E+12,1584579
6.72E+11,1.73E+12,1584744
6.72E+11,1.73E+12,1582481
6.72E+11,1.73E+12,1576436
6.72E+11,1.73E+12,1568859
6.72E+11,1.73E+12,1561801
6.72E+11,1.73E+12,1552820
6.72E+11,1.73E+12,1543133
6.72E+11,1.73E+12,1532577
6.72E+11,1.73E+12,1523645
6.72E+11,1.73E+12,1516736
6.72E+11,1.73E+12,1512922
6.72E+11,1.73E+12,1507495
6.72E+11,1.73E+12,1502132
6.73E+11,1.73E+12,1497356
6.73E+11,1.73E+12,1493177
6.73E+11,1.73E+12,1489062
6.73E+11,1.73E+12,1485361
6.73E+11,1.73E+12,1482595
6.73E+11,1.73E+12,1480469
6.73E+11,1.73E+12,1478613
6.73E+11,1.73E+12,1476997
6.73E+11,1.73E+12,1473972
6.73E+11,1.73E+12,1472606
6.73E+11,1.73E+12,1472572
6.73E+11,1.73E+12,1473871
6.73E+11,1.73E+12,1475208
6.73E+11,1.73E+12,1475903
6.73E+11,1.73E+12,1475693
6.73E+11,1.73E+12,1475329
6.73E+11,1.73E+12,1475213
6.73E+11,1.73E+12,1475607
6.73E+11,1.73E+12,1478164
6.73E+11,1.73E+12,1481040
6.73E+11,1.73E+12,1493551
6.73E+11,1.73E+12,1507602
6.73E+11,1.73E+12,1520175
6.73E+11,1.73E+12,1530454
6.73E+11,1.73E+12,1537951
6.74E+11,1.73E+12,1543493
6.74E+11,1.73E+12,1548040
6.74E+11,1.73E+12,1551908
6.74E+11,1.73E+12,1555906
6.74E+11,1.73E+12,1559685
6.74E+11,1.73E+12,1562587
6.74E+11,1.73E+12,1564892
6.74E+11,1.73E+12,1565783
6.74E+11,1.73E+12,1565633
6.74E+11,1.73E+12,1565734
6.74E+11,1.73E+12,1565912
6.74E+11,1.73E+12,1566948
6.74E+11,1.73E+12,1567855
6.74E+11,1.73E+12,1568452
6.74E+11,1.73E+12,1569239
6.74E+11,1.73E+12,1570559
6.74E+11,1.73E+12,1571586
6.74E+11,1.73E+12,1573000
6.74E+11,1.73E+12,1575117
6.74E+11,1.73E+12,1576438
6.74E+11,1.73E+12,1576580
6.74E+11,1.73E+12,1575032
6.74E+11,1.73E+12,1570463
6.74E+11,1.73E+12,1569890
6.74E+11,1.73E+12,1567275
6.75E+11,1.73E+12,1563762
6.75E+11,1.73E+12,1562085
6.75E+11,1.73E+12,1558796
6.75E+11,1.73E+12,1554221
6.75E+11,1.73E+12,1549323
6.75E+11,1.73E+12,1544488
6.75E+11,1.73E+12,1541076
6.75E+11,1.73E+12,1538356
6.75E+11,1.73E+12,1536354
6.75E+11,1.73E+12,1533712
6.75E+11,1.73E+12,1530961
6.75E+11,1.73E+12,1527936
6.75E+11,1.73E+12,1521500
6.75E+11,1.73E+12,1524264
6.75E+11,1.73E+12,1524339
6.75E+11,1.73E+12,1523771
6.75E+11,1.73E+12,1524067
6.75E+11,1.73E+12,1524882
6.75E+11,1.73E+12,1526170
6.75E+11,1.73E+12,1529019
6.75E+11,1.73E+12,1530429
6.75E+11,1.73E+12,1531390
6.75E+11,1.73E+12,1532227
6.75E+11,1.73E+12,1533075
6.75E+11,1.73E+12,1534403
6.76E+11,1.73E+12,1535863
6.76E+11,1.73E+12,1536370
6.76E+11,1.73E+12,1536912
6.76E+11,1.73E+12,1537090
6.76E+11,1.73E+12,1536180
6.76E+11,1.73E+12,1533275
6.76E+11,1.73E+12,1530267
6.76E+11,1.73E+12,1525848
6.76E+11,1.73E+12,1519846
6.76E+11,1.73E+12,1513488
6.76E+11,1.73E+12,1508285
6.76E+11,1.73E+12,1508827
6.76E+11,1.73E+12,1513703
6.76E+11,1.73E+12,1520886
6.76E+11,1.73E+12,1526524
6.76E+11,1.73E+12,1531485
6.76E+11,1.73E+12,1533797
6.76E+11,1.73E+12,1536576
6.76E+11,1.73E+12,1537868
6.76E+11,1.73E+12,1539879
6.76E+11,1.73E+12,1544192
6.76E+11,1.73E+12,1547429
6.76E+11,1.73E+12,1551026
6.76E+11,1.73E+12,1553214
6.76E+11,1.73E+12,1554072
6.77E+11,1.73E+12,1555451
6.77E+11,1.73E+12,1556987
6.77E+11,1.73E+12,1558010
6.77E+11,1.73E+12,1558077
6.77E+11,1.73E+12,1557550
6.77E+11,1.73E+12,1556906
6.77E+11,1.73E+12,1554814
6.77E+11,1.73E+12,1550571
6.77E+11,1.73E+12,1545996
6.77E+11,1.73E+12,1543186
6.77E+11,1.73E+12,1540745
6.77E+11,1.73E+12,1538409
6.77E+11,1.73E+12,1535648
6.77E+11,1.73E+12,1534878
6.77E+11,1.73E+12,1545025
6.77E+11,1.73E+12,1557277
6.77E+11,1.73E+12,1564871
6.77E+11,1.73E+12,1569103
6.77E+11,1.73E+12,1574184
6.77E+11,1.73E+12,1575412
6.77E+11,1.73E+12,1575581
6.77E+11,1.73E+12,1574061
6.77E+11,1.73E+12,1573224
6.77E+11,1.73E+12,1572652
6.77E+11,1.73E+12,1572029
6.78E+11,1.73E+12,1572200
6.78E+11,1.73E+12,1571614
6.78E+11,1.73E+12,1572107
6.78E+11,1.73E+12,1573660
6.78E+11,1.73E+12,1578463
6.78E+11,1.73E+12,1581329
6.78E+11,1.73E+12,1581699
6.78E+11,1.73E+12,1580231
6.78E+11,1.73E+12,1576966
6.78E+11,1.73E+12,1573430
6.78E+11,1.73E+12,1572195
6.78E+11,1.73E+12,1570316
6.78E+11,1.73E+12,1569516
6.78E+11,1.73E+12,1568261
6.78E+11,1.73E+12,1566017
6.78E+11,1.73E+12,1564404
6.78E+11,1.73E+12,1562868
6.78E+11,1.73E+12,1561565
6.78E+11,1.73E+12,1559731
6.78E+11,1.73E+12,1557726
6.78E+11,1.73E+12,1554970
6.78E+11,1.73E+12,1550611
6.78E+11,1.73E+12,1545221
6.78E+11,1.73E+12,1540248
6.78E+11,1.73E+12,1536670
6.79E+11,1.73E+12,1535502
6.79E+11,1.73E+12,1535982
6.79E+11,1.73E+12,1535400
6.79E+11,1.73E+12,1535630
6.79E+11,1.73E+12,1535926
6.79E+11,1.73E+12,1535676
6.79E+11,1.73E+12,1534226
6.79E+11,1.73E+12,1532319
6.79E+11,1.73E+12,1531335
6.79E+11,1.73E+12,1532299
6.79E+11,1.73E+12,1532891
6.79E+11,1.73E+12,1534791
6.79E+11,1.73E+12,1536270
6.79E+11,1.73E+12,1535008
6.79E+11,1.73E+12,1532586
6.79E+11,1.73E+12,1531041
6.79E+11,1.73E+12,1529676
6.79E+11,1.73E+12,1528622
6.79E+11,1.73E+12,1528544
6.79E+11,1.73E+12,1529528
6.79E+11,1.73E+12,1530871
6.79E+11,1.73E+12,1532022
6.79E+11,1.73E+12,1532955
6.79E+11,1.73E+12,1532863
6.79E+11,1.73E+12,1531973
6.80E+11,1.73E+12,1530543
6.80E+11,1.73E+12,1530393
6.80E+11,1.73E+12,1531083
6.80E+11,1.73E+12,1532947
6.80E+11,1.73E+12,1535057
6.80E+11,1.73E+12,1535910
6.80E+11,1.73E+12,1534174
6.80E+11,1.73E+12,1530771
6.80E+11,1.73E+12,1527437
6.80E+11,1.73E+12,1522666
6.80E+11,1.73E+12,1518664
6.80E+11,1.73E+12,1516297
6.80E+11,1.73E+12,1511726
6.80E+11,1.73E+12,1504006
6.80E+11,1.73E+12,1494458
6.80E+11,1.73E+12,1487435
6.80E+11,1.73E+12,1479370
6.80E+11,1.73E+12,1471649
6.80E+11,1.73E+12,1467148
6.80E+11,1.73E+12,1461880
6.80E+11,1.73E+12,1457565
6.80E+11,1.73E+12,1455500
6.80E+11,1.73E+12,1452322
6.80E+11,1.73E+12,1448414
6.80E+11,1.73E+12,1444996
6.81E+11,1.73E+12,1439879
6.81E+11,1.73E+12,1433033
6.81E+11,1.73E+12,1427394
6.81E+11,1.73E+12,1422205
6.81E+11,1.73E+12,1417045
6.81E+11,1.73E+12,1412696
6.81E+11,1.73E+12,1406930
6.81E+11,1.73E+12,1401235
6.81E+11,1.73E+12,1396265
6.81E+11,1.73E+12,1392363
6.81E+11,1.73E+12,1390174
6.81E+11,1.73E+12,1388207
6.81E+11,1.73E+12,1386382
6.81E+11,1.73E+12,1384374
6.81E+11,1.73E+12,1380347
6.81E+11,1.73E+12,1376518
6.81E+11,1.73E+12,1373410
6.81E+11,1.73E+12,1371183
6.81E+11,1.73E+12,1369747
6.81E+11,1.73E+12,1368842
6.81E+11,1.73E+12,1369027
6.81E+11,1.73E+12,1369038
6.81E+11,1.73E+12,1369866
6.81E+11,1.73E+12,1371604
6.81E+11,1.73E+12,1372958
6.82E+11,1.73E+12,1375917
6.82E+11,1.73E+12,1378194
6.82E+11,1.73E+12,1379074
6.82E+11,1.73E+12,1382863
6.82E+11,1.73E+12,1386097
6.82E+11,1.73E+12,1390273
6.82E+11,1.73E+12,1395360
6.82E+11,1.73E+12,1397504
6.82E+11,1.73E+12,1399694
6.82E+11,1.73E+12,1401673
6.82E+11,1.73E+12,1402999
6.82E+11,1.73E+12,1405632
6.82E+11,1.73E+12,1408792
6.82E+11,1.73E+12,1411746
6.82E+11,1.73E+12,1416580
6.82E+11,1.73E+12,1420195
6.82E+11,1.73E+12,1423982
6.82E+11,1.73E+12,1433092
6.82E+11,1.73E+12,1439453
6.82E+11,1.73E+12,1439807
6.82E+11,1.73E+12,1436446
6.82E+11,1.73E+12,1431404
6.82E+11,1.73E+12,1426039
6.82E+11,1.73E+12,1422172
6.82E+11,1.73E+12,1419901
6.83E+11,1.73E+12,1419029
6.83E+11,1.73E+12,1418910
6.83E+11,1.73E+12,1419015
6.83E+11,1.73E+12,1419836
6.83E+11,1.73E+12,1420808
6.83E+11,1.73E+12,1420943
6.83E+11,1.73E+12,1420563
6.83E+11,1.73E+12,1420849
6.83E+11,1.73E+12,1420782
6.83E+11,1.73E+12,1420853
6.83E+11,1.73E+12,1421163
6.83E+11,1.73E+12,1422077
6.83E+11,1.73E+12,1423498
6.83E+11,1.73E+12,1426378
6.83E+11,1.73E+12,1430674
6.83E+11,1.73E+12,1436006
6.83E+11,1.73E+12,1442877
6.83E+11,1.73E+12,1449954
6.83E+11,1.73E+12,1457433
6.83E+11,1.73E+12,1464266
6.83E+11,1.73E+12,1469964
6.83E+11,1.73E+12,1474998
6.83E+11,1.73E+12,1479196
6.83E+11,1.73E+12,1480986
6.83E+11,1.73E+12,1484067
6.84E+11,1.73E+12,1487958
6.84E+11,1.73E+12,1492435
6.84E+11,1.73E+12,1494432
6.84E+11,1.73E+12,1493674
6.84E+11,1.73E+12,1491859
6.84E+11,1.73E+12,1488416
6.84E+11,1.73E+12,1485493
6.84E+11,1.73E+12,1483863
6.84E+11,1.73E+12,1482933
6.84E+11,1.73E+12,1482215
6.84E+11,1.73E+12,1481409
6.84E+11,1.73E+12,1480773
6.84E+11,1.73E+12,1480456
6.84E+11,1.73E+12,1480075
6.84E+11,1.73E+12,1479593
6.84E+11,1.73E+12,1479016
6.84E+11,1.73E+12,1476737
6.84E+11,1.73E+12,1473887
6.84E+11,1.73E+12,1471032
6.84E+11,1.73E+12,1468422
6.84E+11,1.73E+12,1466339
6.84E+11,1.73E+12,1464676
6.84E+11,1.73E+12,1462921
6.84E+11,1.73E+12,1461432
6.84E+11,1.73E+12,1460191
6.85E+11,1.73E+12,1459445
6.85E+11,1.73E+12,1458318
6.85E+11,1.73E+12,1456826
6.85E+11,1.73E+12,1455229
6.85E+11,1.73E+12,1453643
6.85E+11,1.73E+12,1451193
6.85E+11,1.73E+12,1447985
6.85E+11,1.73E+12,1444538
6.85E+11,1.73E+12,1442518
6.85E+11,1.73E+12,1439432
6.85E+11,1.73E+12,1431071
6.85E+11,1.73E+12,1418380
6.85E+11,1.73E+12,1403461
6.85E+11,1.73E+12,1391774
6.85E+11,1.73E+12,1384611
6.85E+11,1.73E+12,1381052
6.85E+11,1.73E+12,1378808
6.85E+11,1.73E+12,1377495
6.85E+11,1.73E+12,1376924
6.85E+11,1.73E+12,1376704
6.85E+11,1.73E+12,1376723
6.85E+11,1.73E+12,1378146
6.85E+11,1.73E+12,1378444
6.85E+11,1.73E+12,1378231
6.85E+11,1.73E+12,1377282
6.86E+11,1.73E+12,1375999
6.86E+11,1.73E+12,1377209
6.86E+11,1.73E+12,1378330
6.86E+11,1.73E+12,1377662
6.86E+11,1.73E+12,1377520
6.86E+11,1.73E+12,1377216
6.86E+11,1.73E+12,1376918
6.86E+11,1.73E+12,1376363
6.86E+11,1.73E+12,1375145
6.86E+11,1.73E+12,1374367
6.86E+11,1.73E+12,1371393
6.86E+11,1.73E+12,1366991
6.86E+11,1.73E+12,1364525
6.86E+11,1.73E+12,1365291
6.86E+11,1.73E+12,1366931
6.86E+11,1.73E+12,1368609
6.86E+11,1.73E+12,1370105
6.86E+11,1.73E+12,1371819
6.86E+11,1.73E+12,1373329
6.86E+11,1.73E+12,1374272
6.86E+11,1.73E+12,1374984
6.86E+11,1.73E+12,1376672
6.86E+11,1.73E+12,1380165
6.86E+11,1.73E+12,1383100
6.86E+11,1.73E+12,1385121
6.87E+11,1.73E+12,1386622
6.87E+11,1.73E+12,1388331
6.87E+11,1.73E+12,1390083
6.87E+11,1.73E+12,1391719
6.87E+11,1.73E+12,1393677
6.87E+11,1.73E+12,1396036
6.87E+11,1.73E+12,1397972
6.87E+11,1.73E+12,1399334
6.87E+11,1.73E+12,1400144
6.87E+11,1.73E+12,1400667
6.87E+11,1.73E+12,1401900
6.87E+11,1.73E+12,1402936
6.87E+11,1.73E+12,1403849
6.87E+11,1.73E+12,1404703
6.87E+11,1.73E+12,1404097
6.87E+11,1.73E+12,1403211
6.87E+11,1.73E+12,1402674
6.87E+11,1.73E+12,1402536
6.87E+11,1.73E+12,1402878
6.87E+11,1.73E+12,1402528
6.87E+11,1.73E+12,1401206
6.87E+11,1.73E+12,1399942
6.87E+11,1.73E+12,1398415
6.87E+11,1.73E+12,1397625
6.87E+11,1.73E+12,1397192
6.88E+11,1.73E+12,1396729
6.88E+11,1.73E+12,1396525
6.88E+11,1.73E+12,1396671
6.88E+11,1.73E+12,1397301
6.88E+11,1.73E+12,1397088
6.88E+11,1.73E+12,1396126
6.88E+11,1.73E+12,1394610
6.88E+11,1.73E+12,1392052
6.88E+11,1.73E+12,1389107
6.88E+11,1.73E+12,1387008
6.88E+11,1.73E+12,1385739
6.88E+11,1.73E+12,1385223
6.88E+11,1.73E+12,1384638
6.88E+11,1.73E+12,1384049
6.88E+11,1.73E+12,1383252
6.88E+11,1.73E+12,1382634
6.88E+11,1.73E+12,1381718
6.88E+11,1.73E+12,1380459
6.88E+11,1.73E+12,1379249
6.88E+11,1.73E+12,1378774
6.88E+11,1.73E+12,1378451
6.88E+11,1.73E+12,1378287
6.88E+11,1.73E+12,1378744
6.88E+11,1.73E+12,1379372
6.88E+11,1.73E+12,1380408
6.89E+11,1.73E+12,1381487
6.89E+11,1.73E+12,1382459
6.89E+11,1.73E+12,1383011
6.89E+11,1.73E+12,1384055
6.89E+11,1.73E+12,1384927
6.89E+11,1.73E+12,1385346
6.89E+11,1.73E+12,1385292
6.89E+11,1.73E+12,1384992
6.89E+11,1.73E+12,1383408
6.89E+11,1.73E+12,1381814
6.89E+11,1.73E+12,1380485
6.89E+11,1.73E+12,1379875
6.89E+11,1.73E+12,1379625
6.89E+11,1.73E+12,1379063
6.89E+11,1.73E+12,1378297
6.89E+11,1.73E+12,1376731
6.89E+11,1.73E+12,1373667
6.89E+11,1.73E+12,1369895
6.89E+11,1.73E+12,1368397
6.89E+11,1.73E+12,1369401
6.89E+11,1.73E+12,1371885
6.89E+11,1.73E+12,1373490
6.89E+11,1.73E+12,1374467
6.89E+11,1.73E+12,1375320
6.89E+11,1.73E+12,1376446
6.90E+11,1.73E+12,1377894
6.90E+11,1.73E+12,1379192
6.90E+11,1.73E+12,1380726
6.90E+11,1.73E+12,1382522
6.90E+11,1.73E+12,1384085
6.90E+11,1.73E+12,1385419
6.90E+11,1.73E+12,1387066
6.90E+11,1.73E+12,1388793
6.90E+11,1.73E+12,1390182
6.90E+11,1.73E+12,1390233
6.90E+11,1.73E+12,1389814
6.90E+11,1.73E+12,1389289
6.90E+11,1.73E+12,1389167
6.90E+11,1.73E+12,1389599
6.90E+11,1.73E+12,1389656
6.90E+11,1.73E+12,1389482
6.90E+11,1.73E+12,1389263
6.90E+11,1.73E+12,1389103
6.90E+11,1.73E+12,1388683
6.90E+11,1.73E+12,1387739
6.90E+11,1.73E+12,1386021
6.90E+11,1.73E+12,1385249
6.90E+11,1.73E+12,1386027
6.90E+11,1.73E+12,1387199
6.90E+11,1.73E+12,1388219
6.91E+11,1.73E+12,1389159
6.91E+11,1.73E+12,1389903
6.91E+11,1.73E+12,1390114
6.91E+11,1.73E+12,1390578
6.91E+11,1.73E+12,1391126
6.91E+11,1.73E+12,1391954
6.91E+11,1.73E+12,1393311
6.91E+11,1.73E+12,1394212
6.91E+11,1.73E+12,1394236
6.91E+11,1.73E+12,1393572
6.91E+11,1.73E+12,1392365
6.91E+11,1.73E+12,1391614
6.91E+11,1.73E+12,1390934
6.91E+11,1.73E+12,1390154
6.91E+11,1.73E+12,1389306
6.91E+11,1.73E+12,1388205
6.91E+11,1.73E+12,1386388
6.91E+11,1.73E+12,1384666
6.91E+11,1.73E+12,1383424
6.91E+11,1.73E+12,1382714
6.91E+11,1.73E+12,1381273
6.91E+11,1.73E+12,1379152
6.91E+11,1.73E+12,1377470
6.91E+11,1.73E+12,1376975
6.91E+11,1.73E+12,1376720
6.92E+11,1.73E+12,1376555
6.92E+11,1.73E+12,1376685
6.92E+11,1.73E+12,1376513
6.92E+11,1.73E+12,1376346
6.92E+11,1.73E+12,1375809
6.92E+11,1.73E+12,1375401
6.92E+11,1.73E+12,1374723
6.92E+11,1.73E+12,1373593
6.92E+11,1.73E+12,1372134
6.92E+11,1.73E+12,1370355
6.92E+11,1.73E+12,1368979
6.92E+11,1.73E+12,1368301
6.92E+11,1.73E+12,1368283
6.92E+11,1.73E+12,1368610
6.92E+11,1.73E+12,1369565
6.92E+11,1.73E+12,1370758
6.92E+11,1.73E+12,1372575
6.92E+11,1.73E+12,1374455
6.92E+11,1.73E+12,1376578
6.92E+11,1.73E+12,1378175
6.92E+11,1.73E+12,1379024
6.92E+11,1.73E+12,1378708
6.92E+11,1.73E+12,1378244
6.92E+11,1.73E+12,1378447
6.92E+11,1.73E+12,1378830
6.93E+11,1.73E+12,1378368
6.93E+11,1.73E+12,1377390
6.93E+11,1.73E+12,1376961
6.93E+11,1.73E+12,1376669
6.93E+11,1.73E+12,1376967
6.93E+11,1.73E+12,1377629
6.93E+11,1.73E+12,1377643
6.93E+11,1.73E+12,1378276
6.93E+11,1.73E+12,1378045
6.93E+11,1.73E+12,1376976
6.93E+11,1.73E+12,1375957
6.93E+11,1.73E+12,1375114
6.93E+11,1.73E+12,1375019
6.93E+11,1.73E+12,1375065
6.93E+11,1.73E+12,1374715
6.93E+11,1.73E+12,1374429
6.93E+11,1.73E+12,1374290
6.93E+11,1.73E+12,1374435
6.93E+11,1.73E+12,1374376
6.93E+11,1.73E+12,1374468
6.93E+11,1.73E+12,1374350
6.93E+11,1.73E+12,1373638
6.93E+11,1.73E+12,1372591
6.93E+11,1.73E+12,1372059
6.93E+11,1.73E+12,1371744
6.94E+11,1.73E+12,1371996
6.94E+11,1.73E+12,1372047
6.94E+11,1.73E+12,1371940
6.94E+11,1.73E+12,1371760
6.94E+11,1.73E+12,1372037
6.94E+11,1.73E+12,1372084
6.94E+11,1.73E+12,1372245
6.94E+11,1.73E+12,1372323
6.94E+11,1.73E+12,1372027
6.94E+11,1.73E+12,1370596
6.94E+11,1.73E+12,1369465
6.94E+11,1.73E+12,1368456
6.94E+11,1.73E+12,1368275
6.94E+11,1.73E+12,1367754
6.94E+11,1.73E+12,1366568
6.94E+11,1.73E+12,1364868
6.94E+11,1.73E+12,1363309
6.94E+11,1.73E+12,1362558
6.94E+11,1.73E+12,1362320
6.94E+11,1.73E+12,1362647
6.94E+11,1.73E+12,1362655
6.94E+11,1.73E+12,1361804
6.94E+11,1.73E+12,1361009
6.94E+11,1.73E+12,1360699
6.94E+11,1.73E+12,1360936
6.95E+11,1.73E+12,1361612
6.95E+11,1.73E+12,1362212
6.95E+11,1.73E+12,1362564
6.95E+11,1.73E+12,1362747
6.95E+11,1.73E+12,1363254
6.95E+11,1.73E+12,1363765
6.95E+11,1.73E+12,1364600
6.95E+11,1.73E+12,1365124
6.95E+11,1.73E+12,1364982
6.95E+11,1.73E+12,1363981
6.95E+11,1.73E+12,1362778
6.95E+11,1.73E+12,1361557
6.95E+11,1.73E+12,1360666
6.95E+11,1.73E+12,1360512
6.95E+11,1.73E+12,1360473
6.95E+11,1.73E+12,1360471
6.95E+11,1.73E+12,1360677
6.95E+11,1.73E+12,1360899
6.95E+11,1.73E+12,1361200
6.95E+11,1.73E+12,1362264
6.95E+11,1.73E+12,1362601
6.95E+11,1.73E+12,1361997
6.95E+11,1.73E+12,1360140
6.95E+11,1.73E+12,1358454
6.95E+11,1.73E+12,1357075
6.96E+11,1.73E+12,1356343
6.96E+11,1.73E+12,1355796
6.96E+11,1.73E+12,1355444
6.96E+11,1.73E+12,1354888
6.96E+11,1.73E+12,1354645
6.96E+11,1.73E+12,1355005
6.96E+11,1.73E+12,1355025
6.96E+11,1.73E+12,1355084
6.96E+11,1.73E+12,1355210
6.96E+11,1.73E+12,1354612
6.96E+11,1.73E+12,1353003
6.96E+11,1.73E+12,1351668
6.96E+11,1.73E+12,1350467
6.96E+11,1.73E+12,1350020
6.96E+11,1.73E+12,1349756
6.96E+11,1.73E+12,1349416
6.96E+11,1.73E+12,1349094
6.96E+11,1.73E+12,1349259
6.96E+11,1.73E+12,1349488
6.96E+11,1.73E+12,1349621
6.96E+11,1.73E+12,1350042
6.96E+11,1.73E+12,1350526
6.96E+11,1.73E+12,1350272
6.96E+11,1.73E+12,1349395
6.96E+11,1.73E+12,1348943
6.97E+11,1.73E+12,1348802
6.97E+11,1.73E+12,1348962
6.97E+11,1.73E+12,1349135
6.97E+11,1.73E+12,1349289
6.97E+11,1.73E+12,1349504
6.97E+11,1.73E+12,1349984
6.97E+11,1.73E+12,1350704
6.97E+11,1.73E+12,1351513
6.97E+11,1.73E+12,1352336
6.97E+11,1.73E+12,1353288
6.97E+11,1.73E+12,1353584
6.97E+11,1.73E+12,1353381
6.97E+11,1.73E+12,1353043
6.97E+11,1.73E+12,1352738
6.97E+11,1.73E+12,1352910
6.97E+11,1.73E+12,1353302
6.97E+11,1.73E+12,1353472
6.97E+11,1.73E+12,1353833
6.97E+11,1.73E+12,1354399
6.97E+11,1.73E+12,1355016
6.97E+11,1.73E+12,1355695
6.97E+11,1.73E+12,1356169
6.97E+11,1.73E+12,1356836
6.97E+11,1.73E+12,1356975
6.97E+11,1.73E+12,1356221
6.98E+11,1.73E+12,1355324
6.98E+11,1.73E+12,1354335
6.98E+11,1.73E+12,1353564
6.98E+11,1.73E+12,1353331
6.98E+11,1.73E+12,1353306
6.98E+11,1.73E+12,1353149
6.98E+11,1.73E+12,1352876
6.98E+11,1.73E+12,1353587
6.98E+11,1.73E+12,1355071
6.98E+11,1.73E+12,1356021
6.98E+11,1.73E+12,1357185
6.98E+11,1.73E+12,1357894
6.98E+11,1.73E+12,1358275
6.98E+11,1.73E+12,1357788
6.98E+11,1.73E+12,1357389
6.98E+11,1.73E+12,1357260
6.98E+11,1.73E+12,1357547
6.98E+11,1.73E+12,1358150
6.98E+11,1.73E+12,1358590
6.98E+11,1.73E+12,1359094
6.98E+11,1.73E+12,1359674
6.98E+11,1.73E+12,1360424
6.98E+11,1.73E+12,1361051
6.98E+11,1.73E+12,1361391
6.98E+11,1.73E+12,1362017
6.99E+11,1.73E+12,1362520
6.99E+11,1.73E+12,1363069
6.99E+11,1.73E+12,1362793
6.99E+11,1.73E+12,1362057
6.99E+11,1.73E+12,1361097
6.99E+11,1.73E+12,1360264
6.99E+11,1.73E+12,1359901
6.99E+11,1.73E+12,1359949
6.99E+11,1.73E+12,1360769
6.99E+11,1.73E+12,1362348
6.99E+11,1.73E+12,1364821
6.99E+11,1.73E+12,1367980
6.99E+11,1.73E+12,1371380
6.99E+11,1.73E+12,1374846
6.99E+11,1.73E+12,1378077
6.99E+11,1.73E+12,1381119
6.99E+11,1.73E+12,1383353
6.99E+11,1.73E+12,1385326
6.99E+11,1.73E+12,1387791
6.99E+11,1.73E+12,1390207
6.99E+11,1.73E+12,1392796
6.99E+11,1.73E+12,1395629
6.99E+11,1.73E+12,1399078
6.99E+11,1.73E+12,1403097
6.99E+11,1.73E+12,1406699
7.00E+11,1.73E+12,1410474
7.00E+11,1.73E+12,1413741
7.00E+11,1.73E+12,1416357
7.00E+11,1.73E+12,1418252
7.00E+11,1.73E+12,1420238
7.00E+11,1.73E+12,1422167
7.00E+11,1.73E+12,1423865
7.00E+11,1.73E+12,1425427
7.00E+11,1.73E+12,1426787
7.00E+11,1.73E+12,1427962
7.00E+11,1.73E+12,1429357
7.00E+11,1.73E+12,1430842
7.00E+11,1.73E+12,1432196
7.00E+11,1.73E+12,1433576
7.00E+11,1.73E+12,1434991
7.00E+11,1.73E+12,1435080
7.00E+11,1.73E+12,1434814
7.00E+11,1.73E+12,1434470
7.00E+11,1.73E+12,1434729
7.00E+11,1.73E+12,1435222
7.00E+11,1.73E+12,1435641
7.00E+11,1.73E+12,1436069
7.00E+11,1.73E+12,1436262
7.00E+11,1.73E+12,1436802
7.00E+11,1.73E+12,1437237
7.01E+11,1.73E+12,1437488
7.01E+11,1.73E+12,1437779
7.01E+11,1.73E+12,1437808
7.01E+11,1.73E+12,1437061
7.01E+11,1.73E+12,1435965
7.01E+11,1.73E+12,1434786
7.01E+11,1.73E+12,1433780
7.01E+11,1.73E+12,1433023
7.01E+11,1.73E+12,1432823
7.01E+11,1.73E+12,1432285
7.01E+11,1.73E+12,1431520
7.01E+11,1.73E+12,1430862
7.01E+11,1.73E+12,1430588
7.01E+11,1.73E+12,1430510
7.01E+11,1.73E+12,1430755
7.01E+11,1.73E+12,1431003
7.01E+11,1.73E+12,1430147
7.01E+11,1.73E+12,1428401
7.01E+11,1.73E+12,1427257
7.01E+11,1.73E+12,1425806
7.01E+11,1.73E+12,1424588
7.01E+11,1.73E+12,1423416
7.01E+11,1.73E+12,1421834
7.01E+11,1.73E+12,1420270
7.01E+11,1.73E+12,1418933
7.02E+11,1.73E+12,1417636
7.02E+11,1.73E+12,1416056
7.02E+11,1.73E+12,1414923
7.02E+11,1.73E+12,1413836
7.02E+11,1.73E+12,1411893
7.02E+11,1.73E+12,1409751
7.02E+11,1.73E+12,1407854
7.02E+11,1.73E+12,1406739
7.02E+11,1.73E+12,1406268
7.02E+11,1.73E+12,1406211
7.02E+11,1.73E+12,1406646
7.02E+11,1.73E+12,1407330
7.02E+11,1.73E+12,1408477
7.02E+11,1.73E+12,1409569
7.02E+11,1.73E+12,1410132
7.02E+11,1.73E+12,1410128
7.02E+11,1.73E+12,1409592
7.02E+11,1.73E+12,1408009
7.02E+11,1.73E+12,1405878
7.02E+11,1.73E+12,1403678
7.02E+11,1.73E+12,1402258
7.02E+11,1.73E+12,1400745
7.02E+11,1.73E+12,1399309
7.02E+11,1.73E+12,1398039
7.02E+11,1.73E+12,1396917
7.03E+11,1.73E+12,1396063
7.03E+11,1.73E+12,1395208
7.03E+11,1.73E+12,1394767
7.03E+11,1.73E+12,1394099
7.03E+11,1.73E+12,1392548
7.03E+11,1.73E+12,1390765
7.03E+11,1.73E+12,1389233
7.03E+11,1.73E+12,1387957
7.03E+11,1.73E+12,1386942
7.03E+11,1.73E+12,1386065
7.03E+11,1.73E+12,1384953
7.03E+11,1.73E+12,1383855
7.03E+11,1.73E+12,1382834
7.03E+11,1.73E+12,1382091
7.03E+11,1.73E+12,1381588
7.03E+11,1.73E+12,1381025
7.03E+11,1.73E+12,1379998
7.03E+11,1.73E+12,1378248
7.03E+11,1.73E+12,1376395
7.03E+11,1.73E+12,1374872
7.03E+11,1.73E+12,1373519
7.03E+11,1.73E+12,1372423
7.03E+11,1.73E+12,1371425
7.03E+11,1.73E+12,1370399
7.03E+11,1.73E+12,1369481
7.04E+11,1.73E+12,1368816
7.04E+11,1.73E+12,1368263
7.04E+11,1.73E+12,1368116
7.04E+11,1.73E+12,1367811
7.04E+11,1.73E+12,1366585
7.04E+11,1.73E+12,1364973
7.04E+11,1.73E+12,1363547
7.04E+11,1.73E+12,1362412
7.04E+11,1.73E+12,1361381
7.04E+11,1.73E+12,1360638
7.04E+11,1.73E+12,1359948
7.04E+11,1.73E+12,1359223
7.04E+11,1.73E+12,1358661
7.04E+11,1.73E+12,1358384
7.04E+11,1.73E+12,1358226
7.04E+11,1.73E+12,1358148
7.04E+11,1.73E+12,1357656
7.04E+11,1.73E+12,1356235
7.04E+11,1.73E+12,1354451
7.04E+11,1.73E+12,1352987
7.04E+11,1.73E+12,1351824
7.04E+11,1.73E+12,1351018
7.04E+11,1.73E+12,1350425
7.04E+11,1.73E+12,1349966
7.04E+11,1.73E+12,1349288
7.05E+11,1.73E+12,1348911
7.05E+11,1.73E+12,1348571
7.05E+11,1.73E+12,1348277
7.05E+11,1.73E+12,1348176
7.05E+11,1.73E+12,1348144
7.05E+11,1.73E+12,1347288
7.05E+11,1.73E+12,1345985
7.05E+11,1.73E+12,1344675
7.05E+11,1.73E+12,1343487
7.05E+11,1.73E+12,1342565
7.05E+11,1.73E+12,1341904
7.05E+11,1.73E+12,1341263
7.05E+11,1.73E+12,1340623
7.05E+11,1.73E+12,1340079
7.05E+11,1.73E+12,1339496
7.05E+11,1.73E+12,1339303
7.05E+11,1.73E+12,1339151
7.05E+11,1.73E+12,1338818
7.05E+11,1.73E+12,1338012
7.05E+11,1.73E+12,1336023
7.05E+11,1.73E+12,1333789
7.05E+11,1.73E+12,1331750
7.05E+11,1.73E+12,1330077
7.05E+11,1.73E+12,1329032
7.05E+11,1.73E+12,1327907
7.06E+11,1.73E+12,1326832
7.06E+11,1.73E+12,1325949
7.06E+11,1.73E+12,1325332
7.06E+11,1.73E+12,1324971
7.06E+11,1.73E+12,1324696
7.06E+11,1.73E+12,1324293
7.06E+11,1.73E+12,1323482
7.06E+11,1.73E+12,1322454
7.06E+11,1.73E+12,1320869
7.06E+11,1.73E+12,1319267
7.06E+11,1.73E+12,1317754
7.06E+11,1.73E+12,1316824
7.06E+11,1.73E+12,1316059
7.06E+11,1.73E+12,1315397
7.06E+11,1.73E+12,1314772
7.06E+11,1.73E+12,1314264
7.06E+11,1.73E+12,1313917
7.06E+11,1.73E+12,1313895
7.06E+11,1.73E+12,1314137
7.06E+11,1.73E+12,1314800
7.06E+11,1.73E+12,1314959
7.06E+11,1.73E+12,1314790
7.06E+11,1.73E+12,1313556
7.06E+11,1.73E+12,1312053
7.06E+11,1.73E+12,1310715
7.07E+11,1.73E+12,1309745
7.07E+11,1.73E+12,1308946
7.07E+11,1.73E+12,1308045
7.07E+11,1.73E+12,1307191
7.07E+11,1.73E+12,1306827
7.07E+11,1.73E+12,1306787
7.07E+11,1.73E+12,1306627
7.07E+11,1.73E+12,1306707
7.07E+11,1.73E+12,1306597
7.07E+11,1.73E+12,1306851
7.07E+11,1.73E+12,1306949
7.07E+11,1.73E+12,1306368
7.07E+11,1.73E+12,1305209
7.07E+11,1.73E+12,1304299
7.07E+11,1.73E+12,1303533
7.07E+11,1.73E+12,1303205
7.07E+11,1.73E+12,1302989
7.07E+11,1.73E+12,1302929
7.07E+11,1.73E+12,1302672
7.07E+11,1.73E+12,1302417
7.07E+11,1.73E+12,1302513
7.07E+11,1.73E+12,1302937
7.07E+11,1.73E+12,1303451
7.07E+11,1.73E+12,1304280
7.07E+11,1.73E+12,1304899
7.08E+11,1.73E+12,1305472
7.08E+11,1.73E+12,1305269
7.08E+11,1.73E+12,1304677
7.08E+11,1.73E+12,1303931
7.08E+11,1.73E+12,1303417
7.08E+11,1.73E+12,1303094
7.08E+11,1.73E+12,1302836
7.08E+11,1.73E+12,1302466
7.08E+11,1.73E+12,1301983
7.08E+11,1.73E+12,1301959
7.08E+11,1.73E+12,1302052
7.08E+11,1.73E+12,1302011
7.08E+11,1.73E+12,1302490
7.08E+11,1.73E+12,1302904
7.08E+11,1.73E+12,1303534
7.08E+11,1.73E+12,1303948
7.08E+11,1.73E+12,1304300
7.08E+11,1.73E+12,1303637
7.08E+11,1.73E+12,1303071
7.08E+11,1.73E+12,1302660
7.08E+11,1.73E+12,1302385
7.08E+11,1.73E+12,1302576
7.08E+11,1.73E+12,1302584
7.08E+11,1.73E+12,1302530
7.08E+11,1.73E+12,1302813
7.09E+11,1.73E+12,1303010
7.09E+11,1.73E+12,1303562
7.09E+11,1.73E+12,1304189
7.09E+11,1.73E+12,1304727
7.09E+11,1.73E+12,1305173
7.09E+11,1.73E+12,1305500
7.09E+11,1.73E+12,1305385
7.09E+11,1.73E+12,1305038
7.09E+11,1.73E+12,1304375
7.09E+11,1.73E+12,1304071
7.09E+11,1.73E+12,1303723
7.09E+11,1.73E+12,1303486
7.09E+11,1.73E+12,1303150
7.09E+11,1.73E+12,1302963
7.09E+11,1.73E+12,1303038
7.09E+11,1.73E+12,1303216
7.09E+11,1.73E+12,1303760
7.09E+11,1.73E+12,1304047
7.09E+11,1.73E+12,1304363
7.09E+11,1.73E+12,1304500
7.09E+11,1.73E+12,1304579
7.09E+11,1.73E+12,1303893
7.09E+11,1.73E+12,1303353
7.09E+11,1.73E+12,1302746
7.09E+11,1.73E+12,1302523
7.10E+11,1.73E+12,1302119
7.10E+11,1.73E+12,1301918
7.10E+11,1.73E+12,1301651
7.10E+11,1.73E+12,1301561
7.10E+11,1.73E+12,1301516
7.10E+11,1.73E+12,1301720
7.10E+11,1.73E+12,1301912
7.10E+11,1.73E+12,1302008
7.10E+11,1.73E+12,1302206
7.10E+11,1.73E+12,1302424
7.10E+11,1.73E+12,1301962
7.10E+11,1.73E+12,1301476
7.10E+11,1.73E+12,1301018
7.10E+11,1.73E+12,1300742
7.10E+11,1.73E+12,1300543
7.10E+11,1.73E+12,1300545
7.10E+11,1.73E+12,1300352
7.10E+11,1.73E+12,1300365
7.10E+11,1.73E+12,1300532
7.10E+11,1.73E+12,1300720
7.10E+11,1.73E+12,1301184
7.10E+11,1.73E+12,1301571
7.10E+11,1.73E+12,1301958
7.10E+11,1.73E+12,1302271
7.10E+11,1.73E+12,1302062
7.11E+11,1.73E+12,1301813
7.11E+11,1.73E+12,1301366
7.11E+11,1.73E+12,1300948
7.11E+11,1.73E+12,1300772
7.11E+11,1.73E+12,1300641
7.11E+11,1.73E+12,1300603
7.11E+11,1.73E+12,1300662
7.11E+11,1.73E+12,1301093
7.11E+11,1.73E+12,1301540
7.11E+11,1.73E+12,1302034
7.11E+11,1.73E+12,1302745
7.11E+11,1.73E+12,1303399
7.11E+11,1.73E+12,1303953
7.11E+11,1.73E+12,1304011
7.11E+11,1.73E+12,1303696
7.11E+11,1.73E+12,1303395
7.11E+11,1.73E+12,1303049
7.11E+11,1.73E+12,1302770
7.11E+11,1.73E+12,1302680
7.11E+11,1.73E+12,1302178
7.11E+11,1.73E+12,1301848
7.11E+11,1.73E+12,1301532
7.11E+11,1.73E+12,1301149
7.11E+11,1.73E+12,1300980
7.11E+11,1.73E+12,1300678
7.12E+11,1.73E+12,1300594
7.12E+11,1.73E+12,1300160
7.12E+11,1.73E+12,1299412
7.12E+11,1.73E+12,1298718
7.12E+11,1.73E+12,1297632
7.12E+11,1.73E+12,1296401
7.12E+11,1.73E+12,1295295
7.12E+11,1.73E+12,1294406
7.12E+11,1.73E+12,1293702
7.12E+11,1.73E+12,1293062
7.12E+11,1.73E+12,1292331
7.12E+11,1.73E+12,1291960
7.12E+11,1.73E+12,1291660
7.12E+11,1.73E+12,1291345
7.12E+11,1.73E+12,1290898
7.12E+11,1.73E+12,1289980
7.12E+11,1.73E+12,1288923
7.12E+11,1.73E+12,1287937
7.12E+11,1.73E+12,1287188
7.12E+11,1.73E+12,1286992
7.12E+11,1.73E+12,1287090
7.12E+11,1.73E+12,1287005
7.12E+11,1.73E+12,1287003
7.12E+11,1.73E+12,1286987
7.12E+11,1.73E+12,1287174
7.13E+11,1.73E+12,1287464
7.13E+11,1.73E+12,1287741
7.13E+11,1.73E+12,1287926
7.13E+11,1.73E+12,1287682
7.13E+11,1.73E+12,1287041
7.13E+11,1.73E+12,1286437
7.13E+11,1.73E+12,1286244
7.13E+11,1.73E+12,1286116
7.13E+11,1.73E+12,1285866
7.13E+11,1.73E+12,1285796
7.13E+11,1.73E+12,1285692
7.13E+11,1.73E+12,1285435
7.13E+11,1.73E+12,1285476
7.13E+11,1.73E+12,1285563
7.13E+11,1.73E+12,1285653
7.13E+11,1.73E+12,1285567
7.13E+11,1.73E+12,1285034
7.13E+11,1.73E+12,1284373
7.13E+11,1.73E+12,1283759
7.13E+11,1.73E+12,1283115
7.13E+11,1.73E+12,1282614
7.13E+11,1.73E+12,1282387
7.13E+11,1.73E+12,1282159
7.13E+11,1.73E+12,1282081
7.13E+11,1.73E+12,1281803
7.14E+11,1.73E+12,1281577
7.14E+11,1.73E+12,1281325
7.14E+11,1.73E+12,1281273
7.14E+11,1.73E+12,1281133
7.14E+11,1.73E+12,1280661
7.14E+11,1.73E+12,1279968
7.14E+11,1.73E+12,1279464
7.14E+11,1.73E+12,1279100
7.14E+11,1.73E+12,1278915
7.14E+11,1.73E+12,1278566
7.14E+11,1.73E+12,1278462
7.14E+11,1.73E+12,1278331
7.14E+11,1.73E+12,1277925
7.14E+11,1.73E+12,1277687
7.14E+11,1.73E+12,1277708
7.14E+11,1.73E+12,1277736
7.14E+11,1.73E+12,1277758
7.14E+11,1.73E+12,1277316
7.14E+11,1.73E+12,1276805
7.14E+11,1.73E+12,1276406
7.14E+11,1.73E+12,1276148
7.14E+11,1.73E+12,1275973
7.14E+11,1.73E+12,1275938
7.14E+11,1.73E+12,1275645
7.14E+11,1.73E+12,1275559
7.15E+11,1.73E+12,1275422
7.15E+11,1.73E+12,1275522
7.15E+11,1.73E+12,1275710
7.15E+11,1.73E+12,1275759
7.15E+11,1.73E+12,1275620
7.15E+11,1.73E+12,1275041
7.15E+11,1.73E+12,1274420
7.15E+11,1.73E+12,1273745
7.15E+11,1.73E+12,1273542
7.15E+11,1.73E+12,1273576
7.15E+11,1.73E+12,1273658
7.15E+11,1.73E+12,1273961
7.15E+11,1.73E+12,1274210
7.15E+11,1.73E+12,1274235
7.15E+11,1.73E+12,1274457
7.15E+11,1.73E+12,1274520
7.15E+11,1.73E+12,1274375
7.15E+11,1.73E+12,1273654
7.15E+11,1.73E+12,1272912
7.15E+11,1.73E+12,1272214
7.15E+11,1.73E+12,1271855
7.15E+11,1.73E+12,1271842
7.15E+11,1.73E+12,1271904
7.15E+11,1.73E+12,1271697
7.15E+11,1.73E+12,1271588
7.16E+11,1.73E+12,1271396
7.16E+11,1.73E+12,1271452
7.16E+11,1.73E+12,1271266
7.16E+11,1.73E+12,1270811
7.16E+11,1.73E+12,1270014
7.16E+11,1.73E+12,1268940
7.16E+11,1.73E+12,1268232
7.16E+11,1.73E+12,1267607
7.16E+11,1.73E+12,1267078
7.16E+11,1.73E+12,1266836
7.16E+11,1.73E+12,1266454
7.16E+11,1.73E+12,1266079
7.16E+11,1.73E+12,1265648
7.16E+11,1.73E+12,1265289
7.16E+11,1.73E+12,1265011
7.16E+11,1.73E+12,1264564
7.16E+11,1.73E+12,1263411
7.16E+11,1.73E+12,1262297
7.16E+11,1.73E+12,1261363
7.16E+11,1.73E+12,1260699
7.16E+11,1.73E+12,1260329
7.16E+11,1.73E+12,1259961
7.16E+11,1.73E+12,1259598
7.16E+11,1.73E+12,1259364
7.16E+11,1.73E+12,1259234
7.17E+11,1.73E+12,1259123
7.17E+11,1.73E+12,1259239
7.17E+11,1.73E+12,1259401
7.17E+11,1.73E+12,1258905
7.17E+11,1.73E+12,1258138
7.17E+11,1.73E+12,1257464
7.17E+11,1.73E+12,1257523
7.17E+11,1.73E+12,1257917
7.17E+11,1.73E+12,1257982
7.17E+11,1.73E+12,1258434
7.17E+11,1.73E+12,1258652
7.17E+11,1.73E+12,1258516
7.17E+11,1.73E+12,1257770
7.17E+11,1.73E+12,1257900
7.17E+11,1.73E+12,1257059
7.17E+11,1.73E+12,1254081
7.17E+11,1.73E+12,1251329
7.17E+11,1.73E+12,1249690
7.17E+11,1.73E+12,1249189
7.17E+11,1.73E+12,1249153
7.17E+11,1.73E+12,1249611
7.17E+11,1.73E+12,1249057
7.17E+11,1.73E+12,1249335
7.17E+11,1.73E+12,1250315
7.17E+11,1.73E+12,1251259
7.18E+11,1.73E+12,1254346
7.18E+11,1.73E+12,1260481
7.18E+11,1.73E+12,1268599
7.18E+11,1.73E+12,1278186
7.18E+11,1.73E+12,1287345
7.18E+11,1.73E+12,1296355
7.18E+11,1.73E+12,1307077
7.18E+11,1.73E+12,1318588
7.18E+11,1.73E+12,1331765
7.18E+11,1.73E+12,1345765
7.18E+11,1.73E+12,1361190
7.18E+11,1.73E+12,1376011
7.18E+11,1.73E+12,1389952
7.18E+11,1.73E+12,1402939
7.18E+11,1.73E+12,1417368
7.18E+11,1.73E+12,1430914
7.18E+11,1.73E+12,1440389
7.18E+11,1.73E+12,1449487
7.18E+11,1.73E+12,1457533
7.18E+11,1.73E+12,1465283
7.18E+11,1.73E+12,1471352
7.18E+11,1.73E+12,1474117
7.18E+11,1.73E+12,1476069
7.18E+11,1.73E+12,1478662
7.18E+11,1.73E+12,1479070
7.19E+11,1.73E+12,1477013
7.19E+11,1.73E+12,1475145
7.19E+11,1.73E+12,1473632
7.19E+11,1.73E+12,1471930
7.19E+11,1.73E+12,1469672
7.19E+11,1.73E+12,1468305
7.19E+11,1.73E+12,1467099
7.19E+11,1.73E+12,1464938
7.19E+11,1.73E+12,1462363
7.19E+11,1.73E+12,1459021
7.19E+11,1.73E+12,1455903
7.19E+11,1.73E+12,1452669
7.19E+11,1.73E+12,1448628
7.19E+11,1.73E+12,1444872
7.19E+11,1.73E+12,1441416
7.19E+11,1.73E+12,1438242
7.19E+11,1.73E+12,1436446
7.19E+11,1.73E+12,1435464
7.19E+11,1.73E+12,1433842
7.19E+11,1.73E+12,1431460
7.19E+11,1.73E+12,1428885
7.19E+11,1.73E+12,1426299
7.19E+11,1.73E+12,1424298
7.19E+11,1.73E+12,1423113
7.19E+11,1.73E+12,1421816
7.20E+11,1.73E+12,1419253
7.20E+11,1.73E+12,1414938
7.20E+11,1.73E+12,1410942
7.20E+11,1.73E+12,1407719
7.20E+11,1.73E+12,1405397
7.20E+11,1.73E+12,1405175
7.20E+11,1.73E+12,1405754
7.20E+11,1.73E+12,1405226
7.20E+11,1.73E+12,1401678
7.20E+11,1.73E+12,1398075
7.20E+11,1.73E+12,1394558
7.20E+11,1.73E+12,1390543
7.20E+11,1.73E+12,1385825
7.20E+11,1.73E+12,1381548
7.20E+11,1.73E+12,1377825
7.20E+11,1.73E+12,1374513
7.20E+11,1.73E+12,1371430
7.20E+11,1.73E+12,1368793
7.20E+11,1.73E+12,1365981
7.20E+11,1.73E+12,1363619
7.20E+11,1.73E+12,1361694
7.20E+11,1.73E+12,1359990
7.20E+11,1.73E+12,1358284
7.20E+11,1.73E+12,1355765
7.20E+11,1.73E+12,1352611
7.21E+11,1.73E+12,1349470
7.21E+11,1.73E+12,1346540
7.21E+11,1.73E+12,1344052
7.21E+11,1.73E+12,1341839
7.21E+11,1.73E+12,1339689
7.21E+11,1.73E+12,1337911
7.21E+11,1.73E+12,1336253
7.21E+11,1.73E+12,1334829
7.21E+11,1.73E+12,1333414
7.21E+11,1.73E+12,1332265
7.21E+11,1.73E+12,1330249
7.21E+11,1.73E+12,1327382
7.21E+11,1.73E+12,1324380
7.21E+11,1.73E+12,1321459
7.21E+11,1.73E+12,1319082
7.21E+11,1.73E+12,1316793
7.21E+11,1.73E+12,1314888
7.21E+11,1.73E+12,1313197
7.21E+11,1.73E+12,1311550
7.21E+11,1.73E+12,1310408
7.21E+11,1.73E+12,1309449
7.21E+11,1.73E+12,1308492
7.21E+11,1.73E+12,1307626
7.21E+11,1.73E+12,1306482
7.21E+11,1.73E+12,1304415
7.22E+11,1.73E+12,1301585
7.22E+11,1.73E+12,1299044
7.22E+11,1.73E+12,1296835
7.22E+11,1.73E+12,1295046
7.22E+11,1.73E+12,1293767
7.22E+11,1.73E+12,1292295
7.22E+11,1.73E+12,1291196
7.22E+11,1.73E+12,1290475
7.22E+11,1.73E+12,1289872
7.22E+11,1.73E+12,1289688
7.22E+11,1.73E+12,1289448
7.22E+11,1.73E+12,1289361
7.22E+11,1.73E+12,1289466
7.22E+11,1.73E+12,1289363
7.22E+11,1.73E+12,1289194
7.22E+11,1.73E+12,1289234
7.22E+11,1.73E+12,1289690
7.22E+11,1.73E+12,1290228
7.22E+11,1.73E+12,1290536
7.22E+11,1.73E+12,1290611
7.22E+11,1.73E+12,1289843
7.22E+11,1.73E+12,1288068
7.22E+11,1.73E+12,1285936
7.22E+11,1.73E+12,1284390
7.22E+11,1.73E+12,1282847
7.23E+11,1.73E+12,1281413
7.23E+11,1.73E+12,1280474
7.23E+11,1.73E+12,1279929
7.23E+11,1.73E+12,1279846
7.23E+11,1.73E+12,1279810
7.23E+11,1.73E+12,1280033
7.23E+11,1.73E+12,1280642
7.23E+11,1.73E+12,1281520
7.23E+11,1.73E+12,1282528
7.23E+11,1.73E+12,1283496
7.23E+11,1.73E+12,1284269
7.23E+11,1.73E+12,1285034
7.23E+11,1.73E+12,1285307
7.23E+11,1.73E+12,1285286
7.23E+11,1.73E+12,1284706
7.23E+11,1.73E+12,1283374
7.23E+11,1.73E+12,1282027
7.23E+11,1.73E+12,1281018
7.23E+11,1.73E+12,1280764
7.23E+11,1.73E+12,1280997
7.23E+11,1.73E+12,1281639
7.23E+11,1.73E+12,1282490
7.23E+11,1.73E+12,1283003
7.23E+11,1.73E+12,1283314
7.23E+11,1.73E+12,1283940
7.24E+11,1.73E+12,1285083
7.24E+11,1.73E+12,1286906
7.24E+11,1.73E+12,1288908
7.24E+11,1.73E+12,1291096
7.24E+11,1.73E+12,1293380
7.24E+11,1.73E+12,1295763
7.24E+11,1.73E+12,1298648
7.24E+11,1.73E+12,1301382
7.24E+11,1.73E+12,1303183
7.24E+11,1.73E+12,1304931
7.24E+11,1.73E+12,1306314
7.24E+11,1.73E+12,1307101
7.24E+11,1.73E+12,1308445
7.24E+11,1.73E+12,1310952
7.24E+11,1.73E+12,1313836
7.24E+11,1.73E+12,1316552
7.24E+11,1.73E+12,1319471
7.24E+11,1.73E+12,1322239
7.24E+11,1.73E+12,1325313
7.24E+11,1.73E+12,1329194
7.24E+11,1.73E+12,1332774
7.24E+11,1.73E+12,1336881
7.24E+11,1.73E+12,1341521
7.24E+11,1.73E+12,1346533
7.24E+11,1.73E+12,1351291
7.25E+11,1.73E+12,1355819
7.25E+11,1.73E+12,1360366
7.25E+11,1.73E+12,1364005
7.25E+11,1.73E+12,1367550
7.25E+11,1.73E+12,1370626
7.25E+11,1.73E+12,1373416
7.25E+11,1.73E+12,1376212
7.25E+11,1.73E+12,1378562
7.25E+11,1.73E+12,1381797
7.25E+11,1.73E+12,1385109
7.25E+11,1.73E+12,1388363
7.25E+11,1.73E+12,1391646
7.25E+11,1.73E+12,1394999
7.25E+11,1.73E+12,1398861
7.25E+11,1.73E+12,1402068
7.25E+11,1.73E+12,1404375
7.25E+11,1.73E+12,1403529
7.25E+11,1.73E+12,1399963
7.25E+11,1.73E+12,1397058
7.25E+11,1.73E+12,1393660
7.25E+11,1.73E+12,1389487
7.25E+11,1.73E+12,1383141
7.25E+11,1.73E+12,1377640
7.25E+11,1.73E+12,1373380
7.25E+11,1.73E+12,1369613
7.26E+11,1.73E+12,1366488
7.26E+11,1.73E+12,1363805
7.26E+11,1.73E+12,1361268
7.26E+11,1.73E+12,1359628
7.26E+11,1.73E+12,1355407
7.26E+11,1.73E+12,1351798
7.26E+11,1.73E+12,1349289
7.26E+11,1.73E+12,1346886
7.26E+11,1.73E+12,1345572
7.26E+11,1.73E+12,1345055
7.26E+11,1.73E+12,1345298
7.26E+11,1.73E+12,1346860
7.26E+11,1.73E+12,1349449
7.26E+11,1.73E+12,1354124
7.26E+11,1.73E+12,1356400
7.26E+11,1.73E+12,1360261
7.26E+11,1.73E+12,1363366
7.26E+11,1.73E+12,1363725
7.26E+11,1.73E+12,1366311
7.26E+11,1.73E+12,1367411
7.26E+11,1.73E+12,1369877
7.26E+11,1.73E+12,1372263
7.26E+11,1.73E+12,1374022
7.26E+11,1.73E+12,1375405
7.26E+11,1.73E+12,1373163
7.27E+11,1.73E+12,1366684
7.27E+11,1.73E+12,1360817
7.27E+11,1.73E+12,1354888
7.27E+11,1.73E+12,1349783
7.27E+11,1.73E+12,1344876
7.27E+11,1.73E+12,1340181
7.27E+11,1.73E+12,1336649
7.27E+11,1.73E+12,1334266
7.27E+11,1.73E+12,1332471
7.27E+11,1.73E+12,1332994
7.27E+11,1.73E+12,1333046
7.27E+11,1.73E+12,1338171
7.27E+11,1.73E+12,1343659
7.27E+11,1.73E+12,1349648
7.27E+11,1.73E+12,1365483
7.27E+11,1.73E+12,1381570
7.27E+11,1.73E+12,1395224
7.27E+11,1.73E+12,1408828
7.27E+11,1.73E+12,1422087
7.27E+11,1.73E+12,1431330
7.27E+11,1.73E+12,1439926
7.27E+11,1.73E+12,1448329
7.27E+11,1.73E+12,1454999
7.27E+11,1.73E+12,1459463
7.27E+11,1.73E+12,1464308
7.28E+11,1.73E+12,1468684
7.28E+11,1.73E+12,1474106
7.28E+11,1.73E+12,1478417
7.28E+11,1.73E+12,1481118
7.28E+11,1.73E+12,1483800
7.28E+11,1.73E+12,1486347
7.28E+11,1.73E+12,1488723
7.28E+11,1.73E+12,1490148
7.28E+11,1.73E+12,1491586
7.28E+11,1.73E+12,1492991
7.28E+11,1.73E+12,1494216
7.28E+11,1.73E+12,1495237
7.28E+11,1.73E+12,1496566
7.28E+11,1.73E+12,1498277
7.28E+11,1.73E+12,1499710
7.28E+11,1.73E+12,1500869
7.28E+11,1.73E+12,1501875
7.28E+11,1.73E+12,1502458
7.28E+11,1.73E+12,1503269
7.28E+11,1.73E+12,1503217
7.28E+11,1.73E+12,1502846
7.28E+11,1.73E+12,1501639
7.28E+11,1.73E+12,1500362
7.28E+11,1.73E+12,1501826
7.28E+11,1.73E+12,1504086
7.29E+11,1.73E+12,1504278
7.29E+11,1.73E+12,1501560
7.29E+11,1.73E+12,1498132
7.29E+11,1.73E+12,1495539
7.29E+11,1.73E+12,1494986
7.29E+11,1.73E+12,1496864
7.29E+11,1.73E+12,1499725
7.29E+11,1.73E+12,1502402
7.29E+11,1.73E+12,1501830
7.29E+11,1.73E+12,1501216
7.29E+11,1.73E+12,1499902
7.29E+11,1.73E+12,1500646
7.29E+11,1.73E+12,1506344
7.29E+11,1.73E+12,1513842
7.29E+11,1.73E+12,1514167
7.29E+11,1.73E+12,1512006
7.29E+11,1.73E+12,1508933
7.29E+11,1.73E+12,1505884
7.29E+11,1.73E+12,1503602
7.29E+11,1.73E+12,1504311
7.29E+11,1.73E+12,1509464
7.29E+11,1.73E+12,1510246
7.29E+11,1.73E+12,1506967
7.29E+11,1.73E+12,1504076
7.29E+11,1.73E+12,1501006
7.30E+11,1.73E+12,1498740
7.30E+11,1.73E+12,1497562
7.30E+11,1.73E+12,1498452
7.30E+11,1.73E+12,1508097
7.30E+11,1.73E+12,1511009
7.30E+11,1.73E+12,1508522
7.30E+11,1.73E+12,1506993
7.30E+11,1.73E+12,1504492
7.30E+11,1.73E+12,1501536
7.30E+11,1.73E+12,1499527
7.30E+11,1.73E+12,1503487
7.30E+11,1.73E+12,1513996
7.30E+11,1.73E+12,1516090
7.30E+11,1.73E+12,1513062
7.30E+11,1.73E+12,1509450
7.30E+11,1.73E+12,1506800
7.30E+11,1.73E+12,1505135
7.30E+11,1.73E+12,1503891
7.30E+11,1.73E+12,1504032
7.30E+11,1.73E+12,1509862
7.30E+11,1.73E+12,1512991
7.30E+11,1.73E+12,1508823
7.30E+11,1.73E+12,1503387
7.30E+11,1.73E+12,1498367
7.30E+11,1.73E+12,1494592
7.31E+11,1.73E+12,1492611
7.31E+11,1.73E+12,1492418
7.31E+11,1.73E+12,1497242
7.31E+11,1.73E+12,1494369
7.31E+11,1.73E+12,1490993
7.31E+11,1.73E+12,1487418
7.31E+11,1.73E+12,1484279
7.31E+11,1.73E+12,1482129
7.31E+11,1.73E+12,1480704
7.31E+11,1.73E+12,1480070
7.31E+11,1.73E+12,1482163
7.31E+11,1.73E+12,1479598
7.31E+11,1.73E+12,1476388
7.31E+11,1.73E+12,1473152
7.31E+11,1.73E+12,1470223
7.31E+11,1.73E+12,1468427
7.31E+11,1.73E+12,1467582
7.31E+11,1.73E+12,1470550
7.31E+11,1.73E+12,1470752
7.31E+11,1.73E+12,1469692
7.31E+11,1.73E+12,1468782
7.31E+11,1.73E+12,1467316
7.31E+11,1.73E+12,1464897
7.31E+11,1.73E+12,1462492
7.31E+11,1.73E+12,1461140
7.32E+11,1.73E+12,1466261
7.32E+11,1.73E+12,1469695
7.32E+11,1.73E+12,1468302
7.32E+11,1.73E+12,1463928
7.32E+11,1.73E+12,1458524
7.32E+11,1.73E+12,1454415
7.32E+11,1.73E+12,1452527
7.32E+11,1.73E+12,1453020
7.32E+11,1.73E+12,1454935
7.32E+11,1.73E+12,1456707
7.32E+11,1.73E+12,1456596
7.32E+11,1.73E+12,1454374
7.32E+11,1.73E+12,1453493
7.32E+11,1.73E+12,1456012
7.32E+11,1.73E+12,1459657
7.32E+11,1.73E+12,1460194
7.32E+11,1.73E+12,1457791
7.32E+11,1.73E+12,1454284
7.32E+11,1.73E+12,1452079
7.32E+11,1.73E+12,1451270
7.32E+11,1.73E+12,1450926
7.32E+11,1.73E+12,1451398
7.32E+11,1.73E+12,1453024
7.32E+11,1.73E+12,1454222
7.32E+11,1.73E+12,1454981
7.33E+11,1.73E+12,1454163
7.33E+11,1.73E+12,1454911
7.33E+11,1.73E+12,1460154
7.33E+11,1.73E+12,1465974
7.33E+11,1.73E+12,1466388
7.33E+11,1.73E+12,1463333
7.33E+11,1.73E+12,1459586
7.33E+11,1.73E+12,1456217
7.33E+11,1.73E+12,1454279
7.33E+11,1.73E+12,1453069
7.33E+11,1.73E+12,1451918
7.33E+11,1.73E+12,1449371
7.33E+11,1.73E+12,1446006
7.33E+11,1.73E+12,1442584
7.33E+11,1.73E+12,1439242
7.33E+11,1.73E+12,1436503
7.33E+11,1.73E+12,1433956
7.33E+11,1.73E+12,1431408
7.33E+11,1.73E+12,1428873
7.33E+11,1.73E+12,1426998
7.33E+11,1.73E+12,1425518
7.33E+11,1.73E+12,1423682
7.33E+11,1.73E+12,1421926
7.33E+11,1.73E+12,1420308
7.33E+11,1.73E+12,1417400
7.34E+11,1.73E+12,1413875
7.34E+11,1.73E+12,1410908
7.34E+11,1.73E+12,1408795
7.34E+11,1.73E+12,1406995
7.34E+11,1.73E+12,1405353
7.34E+11,1.73E+12,1404044
7.34E+11,1.73E+12,1402671
7.34E+11,1.73E+12,1401845
7.34E+11,1.73E+12,1401449
7.34E+11,1.73E+12,1401453
7.34E+11,1.73E+12,1401625
7.34E+11,1.73E+12,1401653
7.34E+11,1.73E+12,1400593
7.34E+11,1.73E+12,1399148
7.34E+11,1.73E+12,1398028
7.34E+11,1.73E+12,1397516
7.34E+11,1.73E+12,1397058
7.34E+11,1.73E+12,1397001
7.34E+11,1.73E+12,1396699
7.34E+11,1.73E+12,1396486
7.34E+11,1.73E+12,1396673
7.34E+11,1.73E+12,1397268
7.34E+11,1.73E+12,1398533
7.34E+11,1.73E+12,1401503
7.34E+11,1.73E+12,1402956
7.35E+11,1.73E+12,1402028
7.35E+11,1.73E+12,1400051
7.35E+11,1.73E+12,1398438
7.35E+11,1.73E+12,1398179
7.35E+11,1.73E+12,1399315
7.35E+11,1.73E+12,1401380
7.35E+11,1.73E+12,1402486
7.35E+11,1.73E+12,1401364
7.35E+11,1.73E+12,1398082
7.35E+11,1.73E+12,1394671
7.35E+11,1.73E+12,1391863
7.35E+11,1.73E+12,1387582
7.35E+11,1.73E+12,1382720
7.35E+11,1.73E+12,1378407
7.35E+11,1.73E+12,1375195
7.35E+11,1.73E+12,1374403
7.35E+11,1.73E+12,1376782
7.35E+11,1.73E+12,1382434
7.35E+11,1.73E+12,1389686
7.35E+11,1.73E+12,1396537
7.35E+11,1.73E+12,1404962
7.35E+11,1.73E+12,1413261
7.35E+11,1.73E+12,1421860
7.35E+11,1.73E+12,1431171
7.35E+11,1.73E+12,1436614
7.36E+11,1.73E+12,1438178
7.36E+11,1.73E+12,1436608
7.36E+11,1.73E+12,1432814
7.36E+11,1.73E+12,1428270
7.36E+11,1.73E+12,1424257
7.36E+11,1.73E+12,1420070
7.36E+11,1.73E+12,1416678
7.36E+11,1.73E+12,1414205
7.36E+11,1.73E+12,1412075
7.36E+11,1.73E+12,1412073
7.36E+11,1.73E+12,1412081
7.36E+11,1.73E+12,1411755
7.36E+11,1.73E+12,1410161
7.36E+11,1.73E+12,1408064
7.36E+11,1.73E+12,1406225
7.36E+11,1.73E+12,1404704
7.36E+11,1.73E+12,1403290
7.36E+11,1.73E+12,1401126
7.36E+11,1.73E+12,1399121
7.36E+11,1.73E+12,1397686
7.36E+11,1.73E+12,1397371
7.36E+11,1.73E+12,1397371
7.36E+11,1.73E+12,1397252
7.36E+11,1.73E+12,1397363
7.36E+11,1.73E+12,1396459
7.37E+11,1.73E+12,1394044
7.37E+11,1.73E+12,1392159
7.37E+11,1.73E+12,1390650
7.37E+11,1.73E+12,1389690
7.37E+11,1.73E+12,1389332
7.37E+11,1.73E+12,1389387
7.37E+11,1.73E+12,1390074
7.37E+11,1.73E+12,1390960
7.37E+11,1.73E+12,1392188
7.37E+11,1.73E+12,1393867
7.37E+11,1.73E+12,1395837
7.37E+11,1.73E+12,1397809
7.37E+11,1.73E+12,1397786
7.37E+11,1.73E+12,1396809
7.37E+11,1.73E+12,1395847
7.37E+11,1.73E+12,1394452
7.37E+11,1.73E+12,1393796
7.37E+11,1.73E+12,1393304
7.37E+11,1.73E+12,1393039
7.37E+11,1.73E+12,1394525
7.37E+11,1.73E+12,1397614
7.37E+11,1.73E+12,1397305
7.37E+11,1.73E+12,1393158
7.37E+11,1.73E+12,1390824
7.37E+11,1.73E+12,1392145
7.38E+11,1.73E+12,1393378
7.38E+11,1.73E+12,1389844
7.38E+11,1.73E+12,1386693
7.38E+11,1.73E+12,1383835
7.38E+11,1.73E+12,1382242
7.38E+11,1.73E+12,1381803
7.38E+11,1.73E+12,1381824
7.38E+11,1.73E+12,1382056
7.38E+11,1.73E+12,1383126
7.38E+11,1.73E+12,1384101
7.38E+11,1.73E+12,1385128
7.38E+11,1.73E+12,1385485
7.38E+11,1.73E+12,1385959
7.38E+11,1.73E+12,1385336
7.38E+11,1.73E+12,1383097
7.38E+11,1.73E+12,1380598
7.38E+11,1.73E+12,1378588
7.38E+11,1.73E+12,1376808
7.38E+11,1.73E+12,1375359
7.38E+11,1.73E+12,1374596
7.38E+11,1.73E+12,1374363
7.38E+11,1.73E+12,1374482
7.38E+11,1.73E+12,1374957
7.38E+11,1.73E+12,1375682
7.38E+11,1.73E+12,1376634
7.39E+11,1.73E+12,1377742
7.39E+11,1.73E+12,1378311
7.39E+11,1.73E+12,1378099
7.39E+11,1.73E+12,1377613
7.39E+11,1.73E+12,1377436
7.39E+11,1.73E+12,1378036
7.39E+11,1.73E+12,1378053
7.39E+11,1.73E+12,1377786
7.39E+11,1.73E+12,1377605
7.39E+11,1.73E+12,1379195
7.39E+11,1.73E+12,1384060
7.39E+11,1.73E+12,1385225
7.39E+11,1.73E+12,1382001
7.39E+11,1.73E+12,1380201
7.39E+11,1.73E+12,1379921
7.39E+11,1.73E+12,1379642
7.39E+11,1.73E+12,1376969
7.39E+11,1.73E+12,1371388
7.39E+11,1.73E+12,1365576
7.39E+11,1.73E+12,1361092
7.39E+11,1.73E+12,1357993
7.39E+11,1.73E+12,1356893
7.39E+11,1.73E+12,1358069
7.39E+11,1.73E+12,1357783
7.39E+11,1.73E+12,1355275
7.40E+11,1.73E+12,1353143
7.40E+11,1.73E+12,1351992
7.40E+11,1.73E+12,1351332
7.40E+11,1.73E+12,1351561
7.40E+11,1.73E+12,1352131
7.40E+11,1.73E+12,1351624
7.40E+11,1.73E+12,1350038
7.40E+11,1.73E+12,1348455
7.40E+11,1.73E+12,1347366
7.40E+11,1.73E+12,1347125
7.40E+11,1.73E+12,1347246
7.40E+11,1.73E+12,1346999
7.40E+11,1.73E+12,1345817
7.40E+11,1.73E+12,1345118
7.40E+11,1.73E+12,1345046
7.40E+11,1.73E+12,1345215
7.40E+11,1.73E+12,1344636
7.40E+11,1.73E+12,1343338
7.40E+11,1.73E+12,1342406
7.40E+11,1.73E+12,1341158
7.40E+11,1.73E+12,1338971
7.40E+11,1.73E+12,1336365
7.40E+11,1.73E+12,1334014
7.40E+11,1.73E+12,1331928
7.40E+11,1.73E+12,1330395
7.41E+11,1.73E+12,1328901
7.41E+11,1.73E+12,1327367
7.41E+11,1.73E+12,1326304
7.41E+11,1.73E+12,1325628
7.41E+11,1.73E+12,1325294
7.41E+11,1.73E+12,1325158
7.41E+11,1.73E+12,1325585
7.41E+11,1.73E+12,1327397
7.41E+11,1.73E+12,1330366
7.41E+11,1.73E+12,1334755
7.41E+11,1.73E+12,1335514
7.41E+11,1.73E+12,1329134
7.41E+11,1.73E+12,1323828
7.41E+11,1.73E+12,1318723
7.41E+11,1.73E+12,1314986
7.41E+11,1.73E+12,1315595
7.41E+11,1.73E+12,1319087
7.41E+11,1.73E+12,1321811
7.41E+11,1.73E+12,1324634
7.41E+11,1.73E+12,1326165
7.41E+11,1.73E+12,1327550
7.41E+11,1.73E+12,1327864
7.41E+11,1.73E+12,1327163
7.41E+11,1.73E+12,1326139
7.41E+11,1.73E+12,1328389
7.42E+11,1.73E+12,1332180
7.42E+11,1.73E+12,1335609
7.42E+11,1.73E+12,1339577
7.42E+11,1.73E+12,1341821
7.42E+11,1.73E+12,1342321
7.42E+11,1.73E+12,1342844
7.42E+11,1.73E+12,1343676
7.42E+11,1.73E+12,1343267
7.42E+11,1.73E+12,1342457
7.42E+11,1.73E+12,1340630
7.42E+11,1.73E+12,1337813
7.42E+11,1.73E+12,1335983
7.42E+11,1.73E+12,1334707
7.42E+11,1.73E+12,1333685
7.42E+11,1.73E+12,1333278
7.42E+11,1.73E+12,1333254
7.42E+11,1.73E+12,1333632
7.42E+11,1.73E+12,1334327
7.42E+11,1.73E+12,1335279
7.42E+11,1.73E+12,1337190
7.42E+11,1.73E+12,1339600
7.42E+11,1.73E+12,1341830
7.42E+11,1.73E+12,1343967
7.42E+11,1.73E+12,1345207
7.42E+11,1.73E+12,1346415
7.43E+11,1.73E+12,1347507
7.43E+11,1.73E+12,1349785
7.43E+11,1.73E+12,1353330
7.43E+11,1.73E+12,1358031
7.43E+11,1.73E+12,1362575
7.43E+11,1.73E+12,1367234
7.43E+11,1.73E+12,1371357
7.43E+11,1.73E+12,1373423
7.43E+11,1.73E+12,1375308
7.43E+11,1.73E+12,1377142
7.43E+11,1.73E+12,1377631
7.43E+11,1.73E+12,1378179
7.43E+11,1.73E+12,1378424
7.43E+11,1.73E+12,1379436
7.43E+11,1.73E+12,1380974
7.43E+11,1.73E+12,1381432
7.43E+11,1.73E+12,1381804
7.43E+11,1.73E+12,1381491
7.43E+11,1.73E+12,1379724
7.43E+11,1.73E+12,1377631
7.43E+11,1.73E+12,1377716
7.43E+11,1.73E+12,1378114
7.43E+11,1.73E+12,1378272
7.43E+11,1.73E+12,1378475
7.43E+11,1.73E+12,1377497
7.44E+11,1.73E+12,1377431
7.44E+11,1.73E+12,1378238
7.44E+11,1.73E+12,1379165
7.44E+11,1.73E+12,1379815
7.44E+11,1.73E+12,1380652
7.44E+11,1.73E+12,1381946
7.44E+11,1.73E+12,1382960
7.44E+11,1.73E+12,1383880
7.44E+11,1.73E+12,1384819
7.44E+11,1.73E+12,1385406
7.44E+11,1.73E+12,1384719
7.44E+11,1.73E+12,1381963
7.44E+11,1.73E+12,1379493
7.44E+11,1.73E+12,1376910
7.44E+11,1.73E+12,1375185
7.44E+11,1.73E+12,1375100
7.44E+11,1.73E+12,1376038
7.44E+11,1.73E+12,1377492
7.44E+11,1.73E+12,1378797
7.44E+11,1.73E+12,1380669
7.44E+11,1.73E+12,1382581
7.44E+11,1.73E+12,1384356
7.44E+11,1.73E+12,1386075
7.44E+11,1.73E+12,1387088
7.44E+11,1.73E+12,1387037
7.45E+11,1.73E+12,1386688
7.45E+11,1.73E+12,1385974
7.45E+11,1.73E+12,1384774
7.45E+11,1.73E+12,1384771
7.45E+11,1.73E+12,1384334
7.45E+11,1.73E+12,1383933
7.45E+11,1.73E+12,1383651
7.45E+11,1.73E+12,1383383
7.45E+11,1.73E+12,1382367
7.45E+11,1.73E+12,1380497
7.45E+11,1.73E+12,1378660
7.45E+11,1.73E+12,1378388
7.45E+11,1.73E+12,1378786
7.45E+11,1.73E+12,1381066
7.45E+11,1.73E+12,1387866
7.45E+11,1.73E+12,1395041
7.45E+11,1.73E+12,1401669
7.45E+11,1.73E+12,1408222
7.45E+11,1.73E+12,1415124
7.45E+11,1.73E+12,1421680
7.45E+11,1.73E+12,1428443
7.45E+11,1.73E+12,1435434
7.45E+11,1.73E+12,1442007
7.45E+11,1.73E+12,1447536
7.45E+11,1.73E+12,1451478
7.46E+11,1.73E+12,1452180
7.46E+11,1.73E+12,1454710
7.46E+11,1.73E+12,1457548
7.46E+11,1.73E+12,1460805
7.46E+11,1.73E+12,1464875
7.46E+11,1.73E+12,1468268
7.46E+11,1.73E+12,1469505
7.46E+11,1.73E+12,1470194
7.46E+11,1.73E+12,1471095
7.46E+11,1.73E+12,1471491
7.46E+11,1.73E+12,1471631
7.46E+11,1.73E+12,1471430
7.46E+11,1.73E+12,1470046
7.46E+11,1.73E+12,1468185
7.46E+11,1.73E+12,1466757
7.46E+11,1.73E+12,1465731
7.46E+11,1.73E+12,1465791
7.46E+11,1.73E+12,1466648
7.46E+11,1.73E+12,1468219
7.46E+11,1.73E+12,1469581
7.46E+11,1.73E+12,1470954
7.46E+11,1.73E+12,1473177
7.46E+11,1.73E+12,1475501
7.46E+11,1.73E+12,1477777
7.46E+11,1.73E+12,1479731
7.47E+11,1.73E+12,1481192
7.47E+11,1.73E+12,1481506
7.47E+11,1.73E+12,1481952
7.47E+11,1.73E+12,1482847
7.47E+11,1.73E+12,1484135
7.47E+11,1.73E+12,1485659
7.47E+11,1.73E+12,1486826
7.47E+11,1.73E+12,1487583
7.47E+11,1.73E+12,1488200
7.47E+11,1.73E+12,1488841
7.47E+11,1.73E+12,1489525
7.47E+11,1.73E+12,1490078
7.47E+11,1.73E+12,1490509
7.47E+11,1.73E+12,1490127
7.47E+11,1.73E+12,1488265
7.47E+11,1.73E+12,1485540
7.47E+11,1.73E+12,1483531
7.47E+11,1.73E+12,1482399
7.47E+11,1.73E+12,1481657
7.47E+11,1.73E+12,1480515
7.47E+11,1.73E+12,1478985
7.47E+11,1.73E+12,1477435
7.47E+11,1.73E+12,1475906
7.47E+11,1.73E+12,1474468
7.47E+11,1.73E+12,1473240
7.48E+11,1.73E+12,1472378
7.48E+11,1.73E+12,1471592
7.48E+11,1.73E+12,1469740
7.48E+11,1.73E+12,1466867
7.48E+11,1.73E+12,1463981
7.48E+11,1.73E+12,1461581
7.48E+11,1.73E+12,1459720
7.48E+11,1.73E+12,1458314
7.48E+11,1.73E+12,1457404
7.48E+11,1.73E+12,1457116
7.48E+11,1.73E+12,1457270
7.48E+11,1.73E+12,1458238
7.48E+11,1.73E+12,1459443
7.48E+11,1.73E+12,1460913
7.48E+11,1.73E+12,1460732
7.48E+11,1.73E+12,1458650
7.48E+11,1.73E+12,1454657
7.48E+11,1.73E+12,1449433
7.48E+11,1.73E+12,1443894
7.48E+11,1.73E+12,1438955
7.48E+11,1.73E+12,1435369
7.48E+11,1.73E+12,1431747
7.48E+11,1.73E+12,1428282
7.48E+11,1.73E+12,1425289
7.48E+11,1.73E+12,1423304
7.49E+11,1.73E+12,1420919
7.49E+11,1.73E+12,1418306
7.49E+11,1.73E+12,1416926
7.49E+11,1.73E+12,1417127
7.49E+11,1.73E+12,1418673
7.49E+11,1.73E+12,1419765
7.49E+11,1.73E+12,1420128
7.49E+11,1.73E+12,1420192
7.49E+11,1.73E+12,1421210
7.49E+11,1.73E+12,1422330
7.49E+11,1.73E+12,1423207
7.49E+11,1.73E+12,1423451
7.49E+11,1.73E+12,1423493
7.49E+11,1.73E+12,1423499
7.49E+11,1.73E+12,1423968
7.49E+11,1.73E+12,1424856
7.49E+11,1.73E+12,1425855
7.49E+11,1.73E+12,1426636
7.49E+11,1.73E+12,1426242
7.49E+11,1.73E+12,1424680
7.49E+11,1.73E+12,1423268
7.49E+11,1.73E+12,1422726
7.49E+11,1.73E+12,1422659
7.49E+11,1.73E+12,1422704
7.49E+11,1.73E+12,1422921
7.50E+11,1.73E+12,1423545
7.50E+11,1.73E+12,1424608
7.50E+11,1.73E+12,1425941
7.50E+11,1.73E+12,1427458
7.50E+11,1.73E+12,1429062
7.50E+11,1.73E+12,1430410
7.50E+11,1.73E+12,1431122
7.50E+11,1.73E+12,1430542
7.50E+11,1.73E+12,1429424
7.50E+11,1.73E+12,1428257
7.50E+11,1.73E+12,1427733
7.50E+11,1.73E+12,1427653
7.50E+11,1.73E+12,1427637
7.50E+11,1.73E+12,1427764
7.50E+11,1.73E+12,1427965
7.50E+11,1.73E+12,1428334
7.50E+11,1.73E+12,1429064
7.50E+11,1.73E+12,1430114
7.50E+11,1.73E+12,1431156
7.50E+11,1.73E+12,1432351
7.50E+11,1.73E+12,1432110
7.50E+11,1.73E+12,1430094
7.50E+11,1.73E+12,1427770
7.50E+11,1.73E+12,1425225
7.50E+11,1.73E+12,1422920
7.51E+11,1.73E+12,1422058
7.51E+11,1.73E+12,1420746
7.51E+11,1.73E+12,1420049
7.51E+11,1.73E+12,1419678
7.51E+11,1.73E+12,1419670
7.51E+11,1.73E+12,1420274
7.51E+11,1.73E+12,1420922
7.51E+11,1.73E+12,1421575
7.51E+11,1.73E+12,1421736
7.51E+11,1.73E+12,1420599
7.51E+11,1.73E+12,1418928
7.51E+11,1.73E+12,1417549
7.51E+11,1.73E+12,1417070
7.51E+11,1.73E+12,1416938
7.51E+11,1.73E+12,1417060
7.51E+11,1.73E+12,1417357
7.51E+11,1.73E+12,1417450
7.51E+11,1.73E+12,1417463
7.51E+11,1.73E+12,1417529
7.51E+11,1.73E+12,1418032
7.51E+11,1.73E+12,1418480
7.51E+11,1.73E+12,1419087
7.51E+11,1.73E+12,1419123
7.51E+11,1.73E+12,1418252
7.51E+11,1.73E+12,1416508
7.52E+11,1.73E+12,1414989
7.52E+11,1.73E+12,1414266
7.52E+11,1.73E+12,1412122
7.52E+11,1.73E+12,1409556
7.52E+11,1.73E+12,1407586
7.52E+11,1.73E+12,1407577
7.52E+11,1.73E+12,1409129
7.52E+11,1.73E+12,1412517
7.52E+11,1.73E+12,1416358
7.52E+11,1.73E+12,1420279
7.52E+11,1.73E+12,1424646
7.52E+11,1.73E+12,1428726
7.52E+11,1.73E+12,1431942
7.52E+11,1.73E+12,1434611
7.52E+11,1.73E+12,1436497
7.52E+11,1.73E+12,1438015
7.52E+11,1.73E+12,1438937
7.52E+11,1.73E+12,1439528
7.52E+11,1.73E+12,1439822
7.52E+11,1.73E+12,1440245
7.52E+11,1.73E+12,1440800
7.52E+11,1.73E+12,1441642
7.52E+11,1.73E+12,1442395
7.52E+11,1.73E+12,1442772
7.52E+11,1.73E+12,1442497
7.53E+11,1.73E+12,1442550
7.53E+11,1.73E+12,1443126
7.53E+11,1.73E+12,1444177
7.53E+11,1.73E+12,1445852
7.53E+11,1.73E+12,1446796
7.53E+11,1.73E+12,1447304
7.53E+11,1.73E+12,1447572
7.53E+11,1.73E+12,1447973
7.53E+11,1.73E+12,1448538
7.53E+11,1.73E+12,1449604
7.53E+11,1.73E+12,1450160
7.53E+11,1.73E+12,1451155
7.53E+11,1.73E+12,1451541
7.53E+11,1.73E+12,1451697
7.53E+11,1.73E+12,1451313
7.53E+11,1.73E+12,1450973
7.53E+11,1.73E+12,1450099
7.53E+11,1.73E+12,1448331
7.53E+11,1.73E+12,1445986
7.53E+11,1.73E+12,1442595
7.53E+11,1.73E+12,1439759
7.53E+11,1.73E+12,1438165
7.53E+11,1.73E+12,1438896
7.53E+11,1.73E+12,1439923
7.53E+11,1.73E+12,1440408
7.54E+11,1.73E+12,1440083
7.54E+11,1.73E+12,1438859
7.54E+11,1.73E+12,1437812
7.54E+11,1.73E+12,1437094
7.54E+11,1.73E+12,1436262
7.54E+11,1.73E+12,1435428
7.54E+11,1.73E+12,1434754
7.54E+11,1.73E+12,1434544
7.54E+11,1.73E+12,1434388
7.54E+11,1.73E+12,1433844
7.54E+11,1.73E+12,1433829
7.54E+11,1.73E+12,1433927
7.54E+11,1.73E+12,1433845
7.54E+11,1.73E+12,1433280
7.54E+11,1.73E+12,1431923
7.54E+11,1.73E+12,1430706
7.54E+11,1.73E+12,1429678
7.54E+11,1.73E+12,1428477
7.54E+11,1.73E+12,1427987
7.54E+11,1.73E+12,1427613
7.54E+11,1.73E+12,1427332
7.54E+11,1.73E+12,1427330
7.54E+11,1.73E+12,1427422
7.54E+11,1.73E+12,1427301
7.54E+11,1.73E+12,1426870
7.55E+11,1.73E+12,1425635
7.55E+11,1.73E+12,1424315
7.55E+11,1.73E+12,1421927
7.55E+11,1.73E+12,1420168
7.55E+11,1.73E+12,1419645
7.55E+11,1.73E+12,1419123
7.55E+11,1.73E+12,1419300
7.55E+11,1.73E+12,1419300
7.55E+11,1.73E+12,1419662
7.55E+11,1.73E+12,1420100
7.55E+11,1.73E+12,1420732
7.55E+11,1.73E+12,1421396
7.55E+11,1.73E+12,1422657
7.55E+11,1.73E+12,1424486
7.55E+11,1.73E+12,1425084
7.55E+11,1.73E+12,1424727
7.55E+11,1.73E+12,1424834
7.55E+11,1.73E+12,1424699
7.55E+11,1.73E+12,1424978
7.55E+11,1.73E+12,1425548
7.55E+11,1.73E+12,1425742
7.55E+11,1.73E+12,1423996
7.55E+11,1.73E+12,1420326
7.55E+11,1.73E+12,1416819
7.55E+11,1.73E+12,1414686
7.56E+11,1.73E+12,1414407
7.56E+11,1.73E+12,1414941
7.56E+11,1.73E+12,1414445
7.56E+11,1.73E+12,1414138
7.56E+11,1.73E+12,1413714
7.56E+11,1.73E+12,1413164
7.56E+11,1.73E+12,1412334
7.56E+11,1.73E+12,1411682
7.56E+11,1.73E+12,1411033
7.56E+11,1.73E+12,1410245
7.56E+11,1.73E+12,1409659
7.56E+11,1.73E+12,1409396
7.56E+11,1.73E+12,1409453
7.56E+11,1.73E+12,1410297
7.56E+11,1.73E+12,1410881
7.56E+11,1.73E+12,1410494
7.56E+11,1.73E+12,1410164
7.56E+11,1.73E+12,1409871
7.56E+11,1.73E+12,1409874
7.56E+11,1.73E+12,1410814
7.56E+11,1.73E+12,1412393
7.56E+11,1.73E+12,1414899
7.56E+11,1.73E+12,1418663
7.56E+11,1.73E+12,1424320
7.56E+11,1.73E+12,1432295
7.57E+11,1.73E+12,1441385
7.57E+11,1.73E+12,1452121
7.57E+11,1.73E+12,1462013
7.57E+11,1.73E+12,1471554
7.57E+11,1.73E+12,1478613
7.57E+11,1.73E+12,1482400
7.57E+11,1.73E+12,1484325
7.57E+11,1.73E+12,1484309
7.57E+11,1.73E+12,1482981
7.57E+11,1.73E+12,1482090
7.57E+11,1.73E+12,1481672
7.57E+11,1.73E+12,1483172
7.57E+11,1.73E+12,1486940
7.57E+11,1.73E+12,1492444
7.57E+11,1.73E+12,1498461
7.57E+11,1.73E+12,1504397
7.57E+11,1.73E+12,1508664
7.57E+11,1.73E+12,1511390
7.57E+11,1.73E+12,1513121
7.57E+11,1.73E+12,1514709
7.57E+11,1.73E+12,1516646
7.57E+11,1.73E+12,1518642
7.57E+11,1.73E+12,1521785
7.57E+11,1.73E+12,1526049
7.57E+11,1.73E+12,1531913
7.58E+11,1.73E+12,1534691
7.58E+11,1.73E+12,1535413
7.58E+11,1.73E+12,1534491
7.58E+11,1.73E+12,1534271
7.58E+11,1.73E+12,1534220
7.58E+11,1.73E+12,1534903
7.58E+11,1.73E+12,1536997
7.58E+11,1.73E+12,1539486
7.58E+11,1.73E+12,1541530
7.58E+11,1.73E+12,1543400
7.58E+11,1.73E+12,1546096
7.58E+11,1.73E+12,1548603
7.58E+11,1.73E+12,1550741
7.58E+11,1.73E+12,1551154
7.58E+11,1.73E+12,1550580
7.58E+11,1.73E+12,1550658
7.58E+11,1.73E+12,1549997
7.58E+11,1.73E+12,1548777
7.58E+11,1.73E+12,1547725
7.58E+11,1.73E+12,1546797
7.58E+11,1.73E+12,1546134
7.58E+11,1.73E+12,1544932
7.58E+11,1.73E+12,1543627
7.58E+11,1.73E+12,1542336
7.58E+11,1.73E+12,1540939
7.59E+11,1.73E+12,1539481
7.59E+11,1.73E+12,1538321
7.59E+11,1.73E+12,1537388
7.59E+11,1.73E+12,1535899
7.59E+11,1.73E+12,1533261
7.59E+11,1.73E+12,1529954
7.59E+11,1.73E+12,1526984
7.59E+11,1.73E+12,1524001
7.59E+11,1.73E+12,1521988
7.59E+11,1.73E+12,1520837
7.59E+11,1.73E+12,1520021
7.59E+11,1.73E+12,1521377
7.59E+11,1.73E+12,1524368
7.59E+11,1.73E+12,1528276
7.59E+11,1.73E+12,1533010
7.59E+11,1.73E+12,1537994
7.59E+11,1.73E+12,1542352
7.59E+11,1.73E+12,1546458
7.59E+11,1.73E+12,1550287
7.59E+11,1.73E+12,1550392
7.59E+11,1.73E+12,1548556
7.59E+11,1.73E+12,1543443
7.59E+11,1.73E+12,1540996
7.59E+11,1.73E+12,1540678
7.59E+11,1.73E+12,1540823
7.60E+11,1.73E+12,1541094
7.60E+11,1.73E+12,1541196
7.60E+11,1.73E+12,1541431
7.60E+11,1.73E+12,1543162
7.60E+11,1.73E+12,1547000
7.60E+11,1.73E+12,1550492
7.60E+11,1.73E+12,1552427
7.60E+11,1.73E+12,1551432
7.60E+11,1.73E+12,1548313
7.60E+11,1.73E+12,1543903
7.60E+11,1.73E+12,1540152
7.60E+11,1.73E+12,1537182
7.60E+11,1.73E+12,1535840
7.60E+11,1.73E+12,1535534
7.60E+11,1.73E+12,1538657
7.60E+11,1.73E+12,1542432
7.60E+11,1.73E+12,1543876
7.60E+11,1.73E+12,1541919
7.60E+11,1.73E+12,1538072
7.60E+11,1.73E+12,1536682
7.60E+11,1.73E+12,1537867
7.60E+11,1.73E+12,1538425
7.60E+11,1.73E+12,1537407
7.60E+11,1.73E+12,1535303
7.60E+11,1.73E+12,1534113
7.61E+11,1.73E+12,1536079
7.61E+11,1.73E+12,1539446
7.61E+11,1.73E+12,1542157
7.61E+11,1.73E+12,1542515
7.61E+11,1.73E+12,1542555
7.61E+11,1.73E+12,1544016
7.61E+11,1.73E+12,1546561
7.61E+11,1.73E+12,1550610
7.61E+11,1.73E+12,1556436
7.61E+11,1.73E+12,1560957
7.61E+11,1.73E+12,1565300
7.61E+11,1.73E+12,1567307
7.61E+11,1.73E+12,1568740
7.61E+11,1.73E+12,1569843
7.61E+11,1.73E+12,1570167
7.61E+11,1.73E+12,1571356
7.61E+11,1.73E+12,1573150
7.61E+11,1.73E+12,1573714
7.61E+11,1.73E+12,1575838
7.61E+11,1.73E+12,1576642
7.61E+11,1.73E+12,1578090
7.61E+11,1.73E+12,1579235
7.61E+11,1.73E+12,1580891
7.61E+11,1.73E+12,1582701
7.61E+11,1.73E+12,1584442
7.62E+11,1.73E+12,1586979
7.62E+11,1.73E+12,1589865
7.62E+11,1.73E+12,1594318
7.62E+11,1.73E+12,1596642
7.62E+11,1.73E+12,1597950
7.62E+11,1.73E+12,1599341
7.62E+11,1.73E+12,1600968
7.62E+11,1.73E+12,1602673
7.62E+11,1.73E+12,1601998
7.62E+11,1.73E+12,1600586
7.62E+11,1.73E+12,1599411
7.62E+11,1.73E+12,1599254
7.62E+11,1.73E+12,1600341
7.62E+11,1.73E+12,1603097
7.62E+11,1.73E+12,1607241
7.62E+11,1.73E+12,1614064
7.62E+11,1.73E+12,1614245
7.62E+11,1.73E+12,1610075
7.62E+11,1.73E+12,1606221
7.62E+11,1.73E+12,1602386
7.62E+11,1.73E+12,1597372
7.62E+11,1.73E+12,1594245
7.62E+11,1.73E+12,1592785
7.62E+11,1.73E+12,1591899
7.62E+11,1.73E+12,1589901
7.63E+11,1.73E+12,1586725
7.63E+11,1.73E+12,1582471
7.63E+11,1.73E+12,1578521
7.63E+11,1.73E+12,1574074
7.63E+11,1.73E+12,1569153
7.63E+11,1.73E+12,1564455
7.63E+11,1.73E+12,1559738
7.63E+11,1.73E+12,1555212
7.63E+11,1.73E+12,1551134
7.63E+11,1.73E+12,1547097
7.63E+11,1.73E+12,1544361
7.63E+11,1.73E+12,1544054
7.63E+11,1.73E+12,1545347
7.63E+11,1.73E+12,1545842
7.63E+11,1.73E+12,1543958
7.63E+11,1.73E+12,1540690
7.63E+11,1.73E+12,1537264
7.63E+11,1.73E+12,1534243
7.63E+11,1.73E+12,1532120
7.63E+11,1.73E+12,1530346
7.63E+11,1.73E+12,1528296
7.63E+11,1.73E+12,1526218
7.63E+11,1.73E+12,1524554
7.63E+11,1.73E+12,1522845
7.63E+11,1.73E+12,1521792
7.64E+11,1.73E+12,1521255
7.64E+11,1.73E+12,1520814
7.64E+11,1.73E+12,1519609
7.64E+11,1.73E+12,1517050
7.64E+11,1.73E+12,1513702
7.64E+11,1.73E+12,1509767
7.64E+11,1.73E+12,1505553
7.64E+11,1.73E+12,1502874
7.64E+11,1.73E+12,1501384
7.64E+11,1.73E+12,1499436
7.64E+11,1.73E+12,1497366
7.64E+11,1.73E+12,1495582
7.64E+11,1.73E+12,1494006
7.64E+11,1.73E+12,1492990
7.64E+11,1.73E+12,1491987
7.64E+11,1.73E+12,1490629
7.64E+11,1.73E+12,1489162
7.64E+11,1.73E+12,1486647
7.64E+11,1.73E+12,1484564
7.64E+11,1.73E+12,1482048
7.64E+11,1.73E+12,1480314
7.64E+11,1.73E+12,1479021
7.64E+11,1.73E+12,1478071
7.64E+11,1.73E+12,1477226
7.64E+11,1.73E+12,1475862
7.65E+11,1.73E+12,1474675
7.65E+11,1.73E+12,1473524
7.65E+11,1.73E+12,1471739
7.65E+11,1.73E+12,1470158
7.65E+11,1.73E+12,1473025
7.65E+11,1.73E+12,1478204
7.65E+11,1.73E+12,1479100
7.65E+11,1.73E+12,1477369
7.65E+11,1.73E+12,1473128
7.65E+11,1.73E+12,1469684
7.65E+11,1.73E+12,1466939
7.65E+11,1.73E+12,1464772
7.65E+11,1.73E+12,1463258
7.65E+11,1.73E+12,1462019
7.65E+11,1.73E+12,1461018
7.65E+11,1.73E+12,1460013
7.65E+11,1.73E+12,1459079
7.65E+11,1.73E+12,1457767
7.65E+11,1.73E+12,1456101
7.65E+11,1.73E+12,1453811
7.65E+11,1.73E+12,1451559
7.65E+11,1.73E+12,1450929
7.65E+11,1.73E+12,1451747
7.65E+11,1.73E+12,1455981
7.65E+11,1.73E+12,1461949
7.66E+11,1.73E+12,1468361
7.66E+11,1.73E+12,1462539
7.66E+11,1.73E+12,1459795
7.66E+11,1.73E+12,1461588
7.66E+11,1.73E+12,1464492
7.66E+11,1.73E+12,1467637
7.66E+11,1.73E+12,1473045
7.66E+11,1.73E+12,1479108
7.66E+11,1.73E+12,1485439
7.66E+11,1.73E+12,1492351
7.66E+11,1.73E+12,1499699
7.66E+11,1.73E+12,1502678
7.66E+11,1.73E+12,1505769
7.66E+11,1.73E+12,1513401
7.66E+11,1.73E+12,1521152
7.66E+11,1.73E+12,1529131
7.66E+11,1.73E+12,1535633
7.66E+11,1.73E+12,1540836
7.66E+11,1.73E+12,1547486
7.66E+11,1.73E+12,1554416
7.66E+11,1.73E+12,1561153
7.66E+11,1.73E+12,1570045
7.66E+11,1.73E+12,1582134
7.66E+11,1.73E+12,1593590
7.66E+11,1.73E+12,1605861
7.67E+11,1.73E+12,1619002
7.67E+11,1.73E+12,1628132
7.67E+11,1.73E+12,1637569
7.67E+11,1.73E+12,1647575
7.67E+11,1.73E+12,1656731
7.67E+11,1.73E+12,1663378
7.67E+11,1.73E+12,1671903
7.67E+11,1.73E+12,1681581
7.67E+11,1.73E+12,1701843
7.67E+11,1.73E+12,1713668
7.67E+11,1.73E+12,1711845
7.67E+11,1.73E+12,1719959
7.67E+11,1.73E+12,1730289
7.67E+11,1.73E+12,1728215
7.67E+11,1.73E+12,1717509
7.67E+11,1.73E+12,1714115
7.67E+11,1.73E+12,1712688
7.67E+11,1.73E+12,1713779
7.67E+11,1.73E+12,1712431
7.67E+11,1.73E+12,1710578
7.67E+11,1.73E+12,1706555
7.67E+11,1.73E+12,1701634
7.67E+11,1.73E+12,1697499
7.67E+11,1.73E+12,1694132
7.67E+11,1.73E+12,1691930
7.68E+11,1.73E+12,1690209
7.68E+11,1.73E+12,1688471
7.68E+11,1.73E+12,1687427
7.68E+11,1.73E+12,1686517
7.68E+11,1.73E+12,1687888
7.68E+11,1.73E+12,1694174
7.68E+11,1.73E+12,1696504
7.68E+11,1.73E+12,1691158
7.68E+11,1.73E+12,1688120
7.68E+11,1.73E+12,1686456
7.68E+11,1.73E+12,1685900
7.68E+11,1.73E+12,1685338
7.68E+11,1.73E+12,1684795
7.68E+11,1.73E+12,1683979
7.68E+11,1.73E+12,1683366
7.68E+11,1.73E+12,1682716
7.68E+11,1.73E+12,1682705
7.68E+11,1.73E+12,1682904
7.68E+11,1.73E+12,1682681
7.68E+11,1.73E+12,1681350
7.68E+11,1.73E+12,1679405
7.68E+11,1.73E+12,1677702
7.68E+11,1.73E+12,1676472
7.68E+11,1.73E+12,1676766
7.68E+11,1.73E+12,1675036
7.69E+11,1.73E+12,1671973
7.69E+11,1.73E+12,1674210
7.69E+11,1.73E+12,1675908
7.69E+11,1.73E+12,1676960
7.69E+11,1.73E+12,1678157
7.69E+11,1.73E+12,1680256
7.69E+11,1.73E+12,1681089
7.69E+11,1.73E+12,1680962
7.69E+11,1.73E+12,1680914
7.69E+11,1.73E+12,1682485
7.69E+11,1.73E+12,1677818
7.69E+11,1.73E+12,1679109
7.69E+11,1.73E+12,1681602
7.69E+11,1.73E+12,1683193
7.69E+11,1.73E+12,1684563
7.69E+11,1.73E+12,1685856
7.69E+11,1.73E+12,1687086
7.69E+11,1.73E+12,1688765
7.69E+11,1.73E+12,1689814
7.69E+11,1.73E+12,1689689
7.69E+11,1.73E+12,1690009
7.69E+11,1.73E+12,1695590
7.69E+11,1.73E+12,1692643
7.69E+11,1.73E+12,1690791
7.69E+11,1.73E+12,1692989
7.70E+11,1.73E+12,1694367
7.70E+11,1.73E+12,1695097
7.70E+11,1.73E+12,1696085
7.70E+11,1.73E+12,1697265
7.70E+11,1.73E+12,1698285
7.70E+11,1.73E+12,1699336
7.70E+11,1.73E+12,1699098
7.70E+11,1.73E+12,1698244
7.70E+11,1.73E+12,1697709
7.70E+11,1.73E+12,1698102
7.70E+11,1.73E+12,1699015
7.70E+11,1.73E+12,1699612
7.70E+11,1.73E+12,1699990
7.70E+11,1.73E+12,1700120
7.70E+11,1.73E+12,1700409
7.70E+11,1.73E+12,1700948
7.70E+11,1.73E+12,1701792
7.70E+11,1.73E+12,1702398
7.70E+11,1.73E+12,1702216
7.70E+11,1.73E+12,1701249
7.70E+11,1.73E+12,1701124
7.70E+11,1.73E+12,1701770
7.70E+11,1.73E+12,1709130
7.70E+11,1.73E+12,1704967
7.70E+11,1.73E+12,1706578
7.71E+11,1.73E+12,1706147
7.71E+11,1.73E+12,1706282
7.71E+11,1.73E+12,1706981
7.71E+11,1.73E+12,1707626
7.71E+11,1.73E+12,1708218
7.71E+11,1.73E+12,1707476
7.71E+11,1.73E+12,1705902
7.71E+11,1.73E+12,1704799
7.71E+11,1.73E+12,1704186
7.71E+11,1.73E+12,1704229
7.71E+11,1.73E+12,1704102
7.71E+11,1.73E+12,1704041
7.71E+11,1.73E+12,1703839
7.71E+11,1.73E+12,1703940
7.71E+11,1.73E+12,1704032
7.71E+11,1.73E+12,1704125
7.71E+11,1.73E+12,1704064
7.71E+11,1.73E+12,1703067
7.71E+11,1.73E+12,1701312
7.71E+11,1.73E+12,1699992
7.71E+11,1.73E+12,1699307
7.71E+11,1.73E+12,1698811
7.71E+11,1.73E+12,1698242
7.71E+11,1.73E+12,1697688
7.71E+11,1.73E+12,1697261
7.72E+11,1.73E+12,1697058
7.72E+11,1.73E+12,1697286
7.72E+11,1.73E+12,1697747
7.72E+11,1.73E+12,1697543
7.72E+11,1.73E+12,1695841
7.72E+11,1.73E+12,1693809
7.72E+11,1.73E+12,1692162
7.72E+11,1.73E+12,1691420
7.72E+11,1.73E+12,1691152
7.72E+11,1.73E+12,1690860
7.72E+11,1.73E+12,1690552
7.72E+11,1.73E+12,1690017
7.72E+11,1.73E+12,1690069
7.72E+11,1.73E+12,1690227
7.72E+11,1.73E+12,1690535
7.72E+11,1.73E+12,1690181
7.72E+11,1.73E+12,1688277
7.72E+11,1.73E+12,1685872
7.72E+11,1.73E+12,1683987
7.72E+11,1.73E+12,1683171
7.72E+11,1.73E+12,1682610
7.72E+11,1.73E+12,1682140
7.72E+11,1.73E+12,1681696
7.72E+11,1.73E+12,1681215
7.72E+11,1.73E+12,1681049
7.73E+11,1.73E+12,1681226
7.73E+11,1.73E+12,1681497
7.73E+11,1.73E+12,1681411
7.73E+11,1.73E+12,1679707
7.73E+11,1.73E+12,1677225
7.73E+11,1.73E+12,1675285
7.73E+11,1.73E+12,1674182
7.73E+11,1.73E+12,1673488
7.73E+11,1.73E+12,1673002
7.73E+11,1.73E+12,1672618
7.73E+11,1.73E+12,1672143
7.73E+11,1.73E+12,1672240
7.73E+11,1.73E+12,1672402
7.73E+11,1.73E+12,1672767
7.73E+11,1.73E+12,1673173
7.73E+11,1.73E+12,1672404
7.73E+11,1.73E+12,1670412
7.73E+11,1.73E+12,1668346
7.73E+11,1.73E+12,1666896
7.73E+11,1.73E+12,1666339
7.73E+11,1.73E+12,1665856
7.73E+11,1.73E+12,1665493
7.73E+11,1.73E+12,1665069
7.73E+11,1.73E+12,1664852
7.73E+11,1.73E+12,1664950
7.74E+11,1.73E+12,1664922
7.74E+11,1.73E+12,1665261
7.74E+11,1.73E+12,1665554
7.74E+11,1.73E+12,1665180
7.74E+11,1.73E+12,1663234
7.74E+11,1.73E+12,1661361
7.74E+11,1.73E+12,1660100
7.74E+11,1.73E+12,1659725
7.74E+11,1.73E+12,1659730
7.74E+11,1.73E+12,1659482
7.74E+11,1.73E+12,1659240
7.74E+11,1.73E+12,1659296
7.74E+11,1.73E+12,1659643
7.74E+11,1.73E+12,1660016
7.74E+11,1.73E+12,1660816
7.74E+11,1.73E+12,1661691
7.74E+11,1.73E+12,1661942
7.74E+11,1.73E+12,1660481
7.74E+11,1.73E+12,1658787
7.74E+11,1.73E+12,1657464
7.74E+11,1.73E+12,1656941
7.74E+11,1.73E+12,1657014
7.74E+11,1.73E+12,1657060
7.74E+11,1.73E+12,1657262
7.74E+11,1.73E+12,1657509
7.75E+11,1.73E+12,1658259
7.75E+11,1.73E+12,1658859
7.75E+11,1.73E+12,1659940
7.75E+11,1.73E+12,1661087
7.75E+11,1.73E+12,1662203
7.75E+11,1.73E+12,1662171
7.75E+11,1.73E+12,1661594
7.75E+11,1.73E+12,1661621
7.75E+11,1.73E+12,1660526
7.75E+11,1.73E+12,1659796
7.75E+11,1.73E+12,1660172
7.75E+11,1.73E+12,1660524
7.75E+11,1.73E+12,1660362
7.75E+11,1.73E+12,1660611
7.75E+11,1.73E+12,1661217
7.75E+11,1.73E+12,1662099
7.75E+11,1.73E+12,1663094
7.75E+11,1.73E+12,1664142
7.75E+11,1.73E+12,1665447
7.75E+11,1.73E+12,1666534
7.75E+11,1.73E+12,1666042
7.75E+11,1.73E+12,1664435
7.75E+11,1.73E+12,1663375
7.75E+11,1.73E+12,1664059
7.75E+11,1.73E+12,1663114
7.76E+11,1.73E+12,1664569
7.76E+11,1.73E+12,1664659
7.76E+11,1.73E+12,1665341
7.76E+11,1.73E+12,1665617
7.76E+11,1.73E+12,1666339
7.76E+11,1.73E+12,1667458
7.76E+11,1.73E+12,1668485
7.76E+11,1.73E+12,1669582
7.76E+11,1.73E+12,1670824
7.76E+11,1.73E+12,1671991
7.76E+11,1.73E+12,1672325
7.76E+11,1.73E+12,1671371
7.76E+11,1.73E+12,1670151
7.76E+11,1.73E+12,1669329
7.76E+11,1.73E+12,1669348
7.76E+11,1.73E+12,1669636
7.76E+11,1.73E+12,1669859
7.76E+11,1.73E+12,1670037
7.76E+11,1.73E+12,1670537
7.76E+11,1.73E+12,1671323
7.76E+11,1.73E+12,1672265
7.76E+11,1.73E+12,1673484
7.76E+11,1.73E+12,1675943
7.76E+11,1.73E+12,1679398
7.76E+11,1.73E+12,1678747
7.77E+11,1.73E+12,1680907
7.77E+11,1.73E+12,1681758
7.77E+11,1.73E+12,1681401
7.77E+11,1.73E+12,1680551
7.77E+11,1.73E+12,1680188
7.77E+11,1.73E+12,1680543
7.77E+11,1.73E+12,1681168
7.77E+11,1.73E+12,1681678
7.77E+11,1.73E+12,1682258
7.77E+11,1.73E+12,1682900
7.77E+11,1.73E+12,1683782
7.77E+11,1.73E+12,1684928
7.77E+11,1.73E+12,1686169
7.77E+11,1.73E+12,1687533
7.77E+11,1.73E+12,1688964
7.77E+11,1.73E+12,1690431
7.77E+11,1.73E+12,1697197
7.77E+11,1.73E+12,1694324
7.77E+11,1.73E+12,1694458
7.77E+11,1.73E+12,1693696
7.77E+11,1.73E+12,1693424
7.77E+11,1.73E+12,1694067
7.77E+11,1.73E+12,1694899
7.77E+11,1.73E+12,1695919
7.77E+11,1.73E+12,1696936
7.78E+11,1.73E+12,1698222
7.78E+11,1.73E+12,1699863
7.78E+11,1.73E+12,1701494
7.78E+11,1.73E+12,1703450
7.78E+11,1.73E+12,1705335
7.78E+11,1.73E+12,1707039
7.78E+11,1.73E+12,1708095
7.78E+11,1.73E+12,1708008
7.78E+11,1.73E+12,1707805
7.78E+11,1.73E+12,1708322
7.78E+11,1.73E+12,1708871
7.78E+11,1.73E+12,1709741
7.78E+11,1.73E+12,1710865
7.78E+11,1.73E+12,1712790
7.78E+11,1.73E+12,1718208
7.78E+11,1.73E+12,1723305
7.78E+11,1.73E+12,1721518
7.78E+11,1.73E+12,1722034
7.78E+11,1.73E+12,1723401
7.78E+11,1.73E+12,1724331
7.78E+11,1.73E+12,1724757
7.78E+11,1.73E+12,1724491
7.78E+11,1.73E+12,1723650
7.78E+11,1.73E+12,1723046
7.78E+11,1.73E+12,1723111
7.79E+11,1.73E+12,1723705
7.79E+11,1.73E+12,1723933
7.79E+11,1.73E+12,1724556
7.79E+11,1.73E+12,1725006
7.79E+11,1.73E+12,1725617
7.79E+11,1.73E+12,1726631
7.79E+11,1.73E+12,1727649
7.79E+11,1.73E+12,1728868
7.79E+11,1.73E+12,1732345
7.79E+11,1.73E+12,1729336
7.79E+11,1.73E+12,1730267
7.79E+11,1.73E+12,1730019
7.79E+11,1.73E+12,1729649
7.79E+11,1.73E+12,1730310
7.79E+11,1.73E+12,1731422
7.79E+11,1.73E+12,1732160
7.79E+11,1.73E+12,1732865
7.79E+11,1.73E+12,1733643
7.79E+11,1.73E+12,1734653
7.79E+11,1.73E+12,1735747
7.79E+11,1.73E+12,1737247
7.79E+11,1.73E+12,1738546
7.79E+11,1.73E+12,1739957
7.79E+11,1.73E+12,1741138
7.79E+11,1.73E+12,1741432
7.80E+11,1.73E+12,1740966
7.80E+11,1.73E+12,1741003
7.80E+11,1.73E+12,1741438
7.80E+11,1.73E+12,1742319
7.80E+11,1.73E+12,1743259
7.80E+11,1.73E+12,1743960
7.80E+11,1.73E+12,1744661
7.80E+11,1.73E+12,1745739
7.80E+11,1.73E+12,1746689
7.80E+11,1.73E+12,1747830
7.80E+11,1.73E+12,1749279
7.80E+11,1.73E+12,1750597
7.80E+11,1.73E+12,1751665
7.80E+11,1.73E+12,1751798
7.80E+11,1.73E+12,1751691
7.80E+11,1.73E+12,1752015
7.80E+11,1.73E+12,1755935
7.80E+11,1.73E+12,1754707
7.80E+11,1.73E+12,1755908
7.80E+11,1.73E+12,1756595
7.80E+11,1.73E+12,1757059
7.80E+11,1.73E+12,1757818
7.80E+11,1.73E+12,1758706
7.80E+11,1.73E+12,1759730
7.80E+11,1.73E+12,1760839
7.81E+11,1.73E+12,1761202
7.81E+11,1.73E+12,1760671
7.81E+11,1.73E+12,1760126
7.81E+11,1.73E+12,1759878
7.81E+11,1.73E+12,1759994
7.81E+11,1.73E+12,1760560
7.81E+11,1.73E+12,1761022
7.81E+11,1.73E+12,1761581
7.81E+11,1.73E+12,1762093
7.81E+11,1.73E+12,1762817
7.81E+11,1.73E+12,1763884
7.81E+11,1.73E+12,1764827
7.81E+11,1.73E+12,1766164
7.81E+11,1.73E+12,1767319
7.81E+11,1.73E+12,1767362
7.81E+11,1.73E+12,1766813
7.81E+11,1.73E+12,1766573
7.81E+11,1.73E+12,1767133
7.81E+11,1.73E+12,1767765
7.81E+11,1.73E+12,1769809
7.81E+11,1.73E+12,1769148
7.81E+11,1.73E+12,1770631
7.81E+11,1.73E+12,1771757
7.81E+11,1.73E+12,1772488
7.81E+11,1.73E+12,1773555
7.82E+11,1.73E+12,1774714
7.82E+11,1.73E+12,1775763
7.82E+11,1.73E+12,1775748
7.82E+11,1.73E+12,1775155
7.82E+11,1.73E+12,1775036
7.82E+11,1.73E+12,1775211
7.82E+11,1.73E+12,1775772
7.82E+11,1.73E+12,1776436
7.82E+11,1.73E+12,1777059
7.82E+11,1.73E+12,1777529
7.82E+11,1.73E+12,1778067
7.82E+11,1.73E+12,1778885
7.82E+11,1.73E+12,1779843
7.82E+11,1.73E+12,1780819
7.82E+11,1.73E+12,1781775
7.82E+11,1.73E+12,1781582
7.82E+11,1.73E+12,1780871
7.82E+11,1.73E+12,1780283
7.82E+11,1.73E+12,1780372
7.82E+11,1.73E+12,1780520
7.82E+11,1.73E+12,1780773
7.82E+11,1.73E+12,1780762
7.82E+11,1.73E+12,1781079
7.82E+11,1.73E+12,1781435
7.82E+11,1.73E+12,1781639
7.83E+11,1.73E+12,1782076
7.83E+11,1.73E+12,1782538
7.83E+11,1.73E+12,1782824
7.83E+11,1.73E+12,1781801
7.83E+11,1.73E+12,1780522
7.83E+11,1.73E+12,1779757
7.83E+11,1.73E+12,1779460
7.83E+11,1.73E+12,1779607
7.83E+11,1.73E+12,1779595
7.83E+11,1.73E+12,1779360
7.83E+11,1.73E+12,1779415
7.83E+11,1.73E+12,1779492
7.83E+11,1.73E+12,1779888
7.83E+11,1.73E+12,1780456
7.83E+11,1.73E+12,1780918
7.83E+11,1.73E+12,1780739
7.83E+11,1.73E+12,1779398
7.83E+11,1.73E+12,1777912
7.83E+11,1.73E+12,1777003
7.83E+11,1.73E+12,1776585
7.83E+11,1.73E+12,1776595
7.83E+11,1.73E+12,1776494
7.83E+11,1.73E+12,1776290
7.83E+11,1.73E+12,1776254
7.83E+11,1.73E+12,1776283
7.84E+11,1.73E+12,1776444
7.84E+11,1.73E+12,1776877
7.84E+11,1.73E+12,1777179
7.84E+11,1.73E+12,1776118
7.84E+11,1.73E+12,1774361
7.84E+11,1.73E+12,1772723
7.84E+11,1.73E+12,1771791
7.84E+11,1.73E+12,1771452
7.84E+11,1.73E+12,1770948
7.84E+11,1.73E+12,1770443
7.84E+11,1.73E+12,1769779
7.84E+11,1.73E+12,1769579
7.84E+11,1.73E+12,1769537
7.84E+11,1.73E+12,1769706
7.84E+11,1.73E+12,1770050
7.84E+11,1.73E+12,1770327
7.84E+11,1.73E+12,1771752
7.84E+11,1.73E+12,1768823
7.84E+11,1.73E+12,1767426
7.84E+11,1.73E+12,1766521
7.84E+11,1.73E+12,1766092
7.84E+11,1.73E+12,1765775
7.84E+11,1.73E+12,1765224
7.84E+11,1.73E+12,1764768
7.84E+11,1.73E+12,1764499
7.85E+11,1.73E+12,1764344
7.85E+11,1.73E+12,1764278
7.85E+11,1.73E+12,1764791
7.85E+11,1.73E+12,1764755
7.85E+11,1.73E+12,1763807
7.85E+11,1.73E+12,1762320
7.85E+11,1.73E+12,1761060
7.85E+11,1.73E+12,1760196
7.85E+11,1.73E+12,1759702
7.85E+11,1.73E+12,1759594
7.85E+11,1.73E+12,1758757
7.85E+11,1.73E+12,1758508
7.85E+11,1.73E+12,1758445
7.85E+11,1.73E+12,1758507
7.85E+11,1.73E+12,1758734
7.85E+11,1.73E+12,1759000
7.85E+11,1.73E+12,1759163
7.85E+11,1.73E+12,1758163
7.85E+11,1.73E+12,1760931
7.85E+11,1.73E+12,1759744
7.85E+11,1.73E+12,1759422
7.85E+11,1.73E+12,1759030
7.85E+11,1.73E+12,1759007
7.85E+11,1.73E+12,1758678
7.85E+11,1.73E+12,1758804
7.86E+11,1.73E+12,1758969
7.86E+11,1.73E+12,1759454
7.86E+11,1.73E+12,1760012
7.86E+11,1.73E+12,1760515
7.86E+11,1.73E+12,1760149
7.86E+11,1.73E+12,1758519
7.86E+11,1.73E+12,1757080
7.86E+11,1.73E+12,1756341
7.86E+11,1.73E+12,1755739
7.86E+11,1.73E+12,1755700
7.86E+11,1.73E+12,1755220
7.86E+11,1.73E+12,1755143
7.86E+11,1.73E+12,1754933
7.86E+11,1.73E+12,1755237
7.86E+11,1.73E+12,1755802
7.86E+11,1.73E+12,1756342
7.86E+11,1.73E+12,1756479
7.86E+11,1.73E+12,1755329
7.86E+11,1.73E+12,1753664
7.86E+11,1.73E+12,1752313
7.86E+11,1.73E+12,1751850
7.86E+11,1.73E+12,1751892
7.86E+11,1.73E+12,1752410
7.86E+11,1.73E+12,1752810
7.86E+11,1.73E+12,1753424
7.87E+11,1.73E+12,1753892
7.87E+11,1.73E+12,1754594
7.87E+11,1.73E+12,1755528
7.87E+11,1.73E+12,1756081
7.87E+11,1.73E+12,1756493
7.87E+11,1.73E+12,1755874
7.87E+11,1.73E+12,1755221
7.87E+11,1.73E+12,1754646
7.87E+11,1.73E+12,1754936
7.87E+11,1.73E+12,1755502
7.87E+11,1.73E+12,1755897
7.87E+11,1.73E+12,1756393
7.87E+11,1.73E+12,1757085
7.87E+11,1.73E+12,1758065
7.87E+11,1.73E+12,1759157
7.87E+11,1.73E+12,1760363
7.87E+11,1.73E+12,1761421
7.87E+11,1.73E+12,1761527
7.87E+11,1.73E+12,1760687
7.87E+11,1.73E+12,1759935
7.87E+11,1.73E+12,1761875
7.87E+11,1.73E+12,1764282
7.87E+11,1.73E+12,1763084
7.87E+11,1.73E+12,1762627
7.87E+11,1.73E+12,1762187
7.88E+11,1.73E+12,1761756
7.88E+11,1.73E+12,1761765
7.88E+11,1.73E+12,1762093
7.88E+11,1.73E+12,1762561
7.88E+11,1.73E+12,1762717
7.88E+11,1.73E+12,1761701
7.88E+11,1.73E+12,1759958
7.88E+11,1.73E+12,1758517
7.88E+11,1.73E+12,1757857
7.88E+11,1.73E+12,1757763
7.88E+11,1.73E+12,1757659
7.88E+11,1.73E+12,1757648
7.88E+11,1.73E+12,1757718
7.88E+11,1.73E+12,1758000
7.88E+11,1.73E+12,1758380
7.88E+11,1.73E+12,1758901
7.88E+11,1.73E+12,1759034
7.88E+11,1.73E+12,1758634
7.88E+11,1.73E+12,1757035
7.88E+11,1.73E+12,1755357
7.88E+11,1.73E+12,1754340
7.88E+11,1.73E+12,1753550
7.88E+11,1.73E+12,1753405
7.88E+11,1.73E+12,1753214
7.88E+11,1.73E+12,1753126
7.89E+11,1.73E+12,1753020
7.89E+11,1.73E+12,1753426
7.89E+11,1.73E+12,1753814
7.89E+11,1.73E+12,1754708
7.89E+11,1.73E+12,1755712
7.89E+11,1.73E+12,1756243
7.89E+11,1.73E+12,1755673
7.89E+11,1.73E+12,1754468
7.89E+11,1.73E+12,1753759
7.89E+11,1.73E+12,1753818
7.89E+11,1.73E+12,1754338
7.89E+11,1.73E+12,1754806
7.89E+11,1.73E+12,1755370
7.89E+11,1.73E+12,1762531
7.89E+11,1.73E+12,1761267
7.89E+11,1.73E+12,1761175
7.89E+11,1.73E+12,1760689
7.89E+11,1.73E+12,1760254
7.89E+11,1.73E+12,1759834
7.89E+11,1.73E+12,1758232
7.89E+11,1.73E+12,1756226
7.89E+11,1.73E+12,1754431
7.89E+11,1.73E+12,1753426
7.89E+11,1.73E+12,1753109
7.89E+11,1.73E+12,1752624
7.90E+11,1.73E+12,1752261
7.90E+11,1.73E+12,1751700
7.90E+11,1.73E+12,1751439
7.90E+11,1.73E+12,1751410
7.90E+11,1.73E+12,1751733
7.90E+11,1.73E+12,1753076
7.90E+11,1.73E+12,1755951
7.90E+11,1.73E+12,1754875
7.90E+11,1.73E+12,1753270
7.90E+11,1.73E+12,1751222
7.90E+11,1.73E+12,1749429
7.90E+11,1.73E+12,1748318
7.90E+11,1.73E+12,1748313
7.90E+11,1.73E+12,1748046
7.90E+11,1.73E+12,1747697
7.90E+11,1.73E+12,1747361
7.90E+11,1.73E+12,1747527
7.90E+11,1.73E+12,1747835
7.90E+11,1.73E+12,1748295
7.90E+11,1.73E+12,1749083
7.90E+11,1.73E+12,1749796
7.90E+11,1.73E+12,1750772
7.90E+11,1.73E+12,1753454
7.90E+11,1.73E+12,1750219
7.90E+11,1.73E+12,1749189
7.91E+11,1.73E+12,1748711
7.91E+11,1.73E+12,1747837
7.91E+11,1.73E+12,1747226
7.91E+11,1.73E+12,1747073
7.91E+11,1.73E+12,1746894
7.91E+11,1.73E+12,1747208
7.91E+11,1.73E+12,1747447
7.91E+11,1.73E+12,1747866
7.91E+11,1.73E+12,1748289
7.91E+11,1.73E+12,1747922
7.91E+11,1.73E+12,1746539
7.91E+11,1.73E+12,1744928
7.91E+11,1.73E+12,1746809
7.91E+11,1.73E+12,1747266
7.91E+11,1.73E+12,1746291
7.91E+11,1.73E+12,1745804
7.91E+11,1.73E+12,1745319
7.91E+11,1.73E+12,1744915
7.91E+11,1.73E+12,1745174
7.91E+11,1.73E+12,1745908
7.91E+11,1.73E+12,1746586
7.91E+11,1.73E+12,1747095
7.91E+11,1.73E+12,1746871
7.91E+11,1.73E+12,1745606
7.91E+11,1.73E+12,1744380
7.92E+11,1.73E+12,1743647
7.92E+11,1.73E+12,1745923
7.92E+11,1.73E+12,1744861
7.92E+11,1.73E+12,1744573
7.92E+11,1.73E+12,1743983
7.92E+11,1.73E+12,1743078
7.92E+11,1.73E+12,1742709
7.92E+11,1.73E+12,1742750
7.92E+11,1.73E+12,1742818
7.92E+11,1.73E+12,1742929
7.92E+11,1.73E+12,1742265
7.92E+11,1.73E+12,1740215
7.92E+11,1.73E+12,1738425
7.92E+11,1.73E+12,1736937
7.92E+11,1.73E+12,1736336
7.92E+11,1.73E+12,1736063
7.92E+11,1.73E+12,1735784
7.92E+11,1.73E+12,1735337
7.92E+11,1.73E+12,1735389
7.92E+11,1.73E+12,1735543
7.92E+11,1.73E+12,1738354
7.92E+11,1.73E+12,1738687
7.92E+11,1.73E+12,1739168
7.92E+11,1.73E+12,1738675
7.92E+11,1.73E+12,1736853
7.93E+11,1.73E+12,1734933
7.93E+11,1.73E+12,1733995
7.93E+11,1.73E+12,1733484
7.93E+11,1.73E+12,1733557
7.93E+11,1.73E+12,1733647
7.93E+11,1.73E+12,1733844
7.93E+11,1.73E+12,1734235
7.93E+11,1.73E+12,1734977
7.93E+11,1.73E+12,1735887
7.93E+11,1.73E+12,1737076
7.93E+11,1.73E+12,1738494
7.93E+11,1.73E+12,1739343
7.93E+11,1.73E+12,1739308
7.93E+11,1.73E+12,1744865
7.93E+11,1.73E+12,1741377
7.93E+11,1.73E+12,1741093
7.93E+11,1.73E+12,1740392
7.93E+11,1.73E+12,1739733
7.93E+11,1.73E+12,1739025
7.93E+11,1.73E+12,1738585
7.93E+11,1.73E+12,1738475
7.93E+11,1.73E+12,1738478
7.93E+11,1.73E+12,1738504
7.93E+11,1.73E+12,1738283
7.93E+11,1.73E+12,1737166
7.94E+11,1.73E+12,1734595
7.94E+11,1.73E+12,1732399
7.94E+11,1.73E+12,1730647
7.94E+11,1.73E+12,1729922
7.94E+11,1.73E+12,1729560
7.94E+11,1.73E+12,1729121
7.94E+11,1.73E+12,1728629
7.94E+11,1.73E+12,1728517
7.94E+11,1.73E+12,1728606
7.94E+11,1.73E+12,1728923
7.94E+11,1.73E+12,1729633
7.94E+11,1.73E+12,1730087
7.94E+11,1.73E+12,1730164
7.94E+11,1.73E+12,1728709
7.94E+11,1.73E+12,1727736
7.94E+11,1.73E+12,1727105
7.94E+11,1.73E+12,1727323
7.94E+11,1.73E+12,1728746
7.94E+11,1.73E+12,1728528
7.94E+11,1.73E+12,1728541
7.94E+11,1.73E+12,1729020
7.94E+11,1.73E+12,1729323
7.94E+11,1.73E+12,1730285
7.94E+11,1.73E+12,1730963
7.94E+11,1.73E+12,1731844
7.95E+11,1.73E+12,1731947
7.95E+11,1.73E+12,1731183
7.95E+11,1.73E+12,1729946
7.95E+11,1.73E+12,1729408
7.95E+11,1.73E+12,1729950
7.95E+11,1.73E+12,1730907
7.95E+11,1.73E+12,1731738
7.95E+11,1.73E+12,1732653
7.95E+11,1.73E+12,1734137
7.95E+11,1.73E+12,1735857
7.95E+11,1.73E+12,1740709
7.95E+11,1.73E+12,1742975
7.95E+11,1.73E+12,1743475
7.95E+11,1.73E+12,1743191
7.95E+11,1.73E+12,1742218
7.95E+11,1.73E+12,1740186
7.95E+11,1.73E+12,1739399
7.95E+11,1.73E+12,1739618
7.95E+11,1.73E+12,1739823
7.95E+11,1.73E+12,1739941
7.95E+11,1.73E+12,1740191
7.95E+11,1.73E+12,1740661
7.95E+11,1.73E+12,1741280
