0	240
7.69806	1562
15.39612	3336
23.09418	4173
30.79224	4455
38.4903	4966
46.18836	5331
53.88642	5439
61.58448	5599
69.28255	5751
76.9806	5790
84.67866	5815
92.37672	5844
100.07478	5824
107.77284	5778
115.470894	5714
123.16896	5623
130.86702	5510
138.5651	5400
146.26314	5307
153.9612	5226
161.65927	5137
169.35732	5049
177.05537	4978
184.75343	4912
192.4515	4840
200.14957	4777
207.84761	4710
215.54568	4627
223.24374	4556
230.94179	4502
238.63986	4441
246.33792	4369
254.03598	4301
261.73404	4237
269.4321	4176
277.1302	4112
284.82822	4038
292.52628	3977
300.22437	3920
307.9224	3864
315.62045	3808
323.31854	3736
331.01657	3660
338.71463	3599
346.4127	3547
354.11075	3496
361.80884	3442
369.50687	3390
377.20493	3334
384.903	3273
392.60104	3226
400.29913	3172
407.9972	3101
415.69522	3035
423.3933	2993
431.09137	2944
438.7894	2882
446.4875	2836
454.18555	2794
461.88358	2728
469.58167	2647
477.27972	2610
484.97778	2713
492.67584	3035
500.3739	3253
508.07196	2721
515.77	1837
523.4681	1781
531.16614	2210
538.8642	2225
546.56226	2144
554.2604	2232
561.98346	2205
569.6812	2117
577.37897	2117
585.07666	2102
592.77435	2038
600.47205	2007
608.1698	1992
615.8675	1960
623.5652	1923
631.26294	1901
638.96063	1891
646.6584	1884
654.356	1872
662.0538	1857
669.75146	1845
677.4492	1825
685.14685	1796
692.8446	1759
700.54236	1712
708.24005	1643
715.93774	1558
723.63544	1472
731.3332	1391
739.0309	1324
746.7286	1275
754.42633	1231
762.124	1192
769.8218	1160
777.5194	1128
785.21716	1104
792.91486	1084
800.6126	1064
808.31024	1040
816.008	1015
823.70575	993
831.40344	974
839.10114	952
846.7988	925
854.4966	895
862.1943	871
869.89197	858
877.5897	846
885.2874	826
892.98517	797
900.6828	775
908.38055	755
916.07825	728
923.776	701
931.4737	679
939.1714	655
946.86914	635
954.56683	623
962.2645	608
969.9622	596
977.66	583
985.35767	566
993.05536	549
1000.7531	532
1008.4508	500
1016.14856	466
1023.8462	444
1031.544	429
1039.2417	404
1046.9393	387
1054.6371	385
1062.3348	370
1070.0325	321
1077.7302	279
1085.428	304
1093.1256	493
1100.8232	863
1108.5211	912
1116.2188	174
1123.9165	-468
1131.6143	-201
1139.312	152
1147.0096	88
1154.7073	115
1162.4052	223
1170.1028	171
1177.8004	134
1185.4983	174
1193.1959	171
1200.8937	137
1208.5913	134
1216.2891	134
1223.9868	125
1231.6844	120
1239.3823	127
1247.08	132
1254.7776	137
1262.4753	149
1270.1731	166
1277.8707	174
1285.5685	169
1293.2662	159
1300.9639	137
1308.6616	100
1316.3593	51
1324.0571	-7
1331.7548	-68
1339.4524	-137
1347.1503	-184
1354.8479	-203
1362.5457	-225
1370.2433	-250
1377.941	-264
1385.6388	-272
1393.3364	-282
1401.034	-291
1408.7319	-296
1416.4296	-296
1424.1272	-301
1431.8251	-311
1439.5227	-316
1447.2205	-326
1454.9181	-336
1462.6158	-338
1470.3136	-343
1478.0112	-350
1485.7091	-358
1493.4067	-365
1501.1044	-370
1508.8021	-375
1516.4999	-385
1524.1975	-395
1531.8953	-407
1539.593	-424
1547.2906	-424
1554.9884	-417
1562.686	-417
1570.3839	-422
1578.0815	-419
1585.7792	-417
1593.477	-426
1601.1747	-436
1608.8724	-439
1616.5701	-456
1624.2678	-476
1631.9656	-483
1639.6632	-485
1647.3608	-493
1655.0587	-493
1662.7563	-495
1670.454	-507
1678.1519	-527
1685.8245	-547
1693.5226	-527
1701.2206	-341
1708.9187	29
1716.6167	63
1724.3147	-652
1732.0128	-1209
1739.7109	-902
1747.409	-579
1755.107	-633
1762.8052	-576
1770.5032	-473
1778.2012	-517
1785.8993	-534
1793.5973	-495
1801.2954	-500
1808.9934	-512
1816.6914	-498
1824.3896	-483
1832.0876	-478
1839.7858	-473
1847.4838	-461
1855.1819	-444
1862.8799	-424
1870.5779	-402
1878.276	-380
1885.974	-363
1893.6721	-353
1901.3701	-358
1909.0682	-370
1916.7664	-397
1924.4644	-444
1932.1625	-490
1939.8605	-532
1947.5585	-576
1955.2566	-613
1962.9546	-635
1970.6527	-650
1978.3507	-655
1986.0488	-655
1993.747	-655
2001.445	-652
2009.1431	-657
2016.8411	-657
2024.5392	-647
2032.2372	-640
2039.9352	-640
2047.6333	-637
2055.3313	-633
2063.0293	-628
2070.7275	-628
2078.4255	-628
2086.1235	-620
2093.8218	-613
2101.5198	-618
2109.2178	-623
2116.9158	-618
2124.6138	-615
2132.312	-618
2140.01	-620
2147.7083	-625
2155.406	-625
2163.1042	-618
2170.8022	-603
2178.5002	-588
2186.1982	-583
2193.8965	-588
2201.5947	-593
2209.2925	-586
2216.9907	-588
2224.6887	-606
2232.3867	-618
2240.0847	-608
2247.803	-598
2255.5007	-606
2263.1985	-610
2270.8965	-610
2278.594	-620
2286.292	-650
2293.9897	-652
2301.6875	-522
2309.3853	-191
2317.0828	-26
2324.7808	-583
2332.4785	-1236
2340.1763	-1050
2347.874	-652
2355.572	-667
2363.2695	-647
2370.9675	-517
2378.6653	-532
2386.363	-566
2394.0608	-525
2401.7588	-510
2409.4563	-525
2417.154	-510
2424.852	-493
2432.5496	-490
2440.2476	-483
2447.9453	-466
2455.643	-446
2463.3408	-429
2471.0388	-402
2478.7363	-375
2486.4343	-363
2494.132	-355
2501.8298	-353
2509.5276	-368
2517.225	-385
2524.923	-409
2532.6208	-449
2540.3186	-498
2548.0164	-539
2555.7144	-566
2563.4119	-588
2571.1099	-608
2578.8076	-615
2586.5054	-608
2594.2031	-606
2601.9011	-608
2609.5986	-601
2617.2964	-593
2624.9944	-596
2632.692	-591
2640.39	-576
2648.0876	-571
2655.7854	-569
2663.4832	-564
2671.1812	-564
2678.8787	-559
2686.5767	-554
2694.2744	-552
2701.972	-549
2709.67	-547
2717.3674	-547
2725.0654	-549
2732.7632	-547
2740.461	-544
2748.1587	-549
2755.8567	-552
2763.5542	-544
2771.2522	-534
2778.95	-525
2786.6477	-515
2794.3455	-505
2802.0432	-507
2809.746	-515
2817.4438	-512
2825.1416	-512
2832.839	-527
2840.5369	-534
2848.2349	-525
2855.9324	-525
2863.6301	-527
2871.3276	-525
2879.0254	-522
2886.7234	-537
2894.421	-559
2902.1187	-527
2909.8164	-321
2917.514	22
2925.212	-56
2932.9097	-787
2940.6072	-1175
2948.305	-785
2956.0024	-539
2963.7002	-598
2971.3982	-505
2979.0957	-417
2986.7935	-463
2994.4912	-456
3002.1887	-417
3009.8867	-426
3017.5845	-431
3025.282	-412
3032.9797	-407
3040.6775	-399
3048.3752	-377
3056.073	-360
3063.7705	-345
3071.4683	-321
3079.166	-296
3086.8635	-277
3094.5615	-257
3102.2593	-250
3109.9568	-255
3117.6545	-269
3125.3523	-291
3133.05	-321
3140.7478	-365
3148.4456	-417
3156.143	-458
3163.8408	-480
3171.5386	-490
3179.2363	-505
3186.934	-515
3194.6316	-512
3202.3293	-507
3210.027	-505
3217.7249	-507
3225.4226	-505
3233.1204	-490
3240.8179	-488
3248.5156	-488
3256.2136	-473
3263.9111	-466
3271.609	-471
3279.3064	-463
3287.0042	-453
3294.7021	-456
3302.3997	-458
3310.0974	-453
3317.7952	-449
3325.4927	-444
3333.1904	-444
3340.8884	-446
3348.586	-449
3356.2837	-441
3363.9812	-429
3371.669	-419
3379.367	-412
3387.065	-409
3394.7627	-409
3402.4604	-409
3410.1584	-419
3417.8562	-431
3425.5542	-436
3433.252	-436
3440.9497	-439
3448.6477	-436
3456.3457	-429
3464.0432	-431
3471.7412	-444
3479.4392	-461
3487.1367	-446
3494.8347	-279
3502.5327	76
3510.2305	117
3517.9282	-630
3525.6262	-1239
3533.324	-858
3541.022	-444
3548.7197	-510
3556.4175	-453
3564.1155	-309
3571.8132	-341
3579.511	-363
3587.209	-311
3594.907	-311
3602.6045	-328
3610.3025	-311
3618.0005	-301
3625.6982	-296
3633.396	-279
3641.094	-267
3648.7917	-255
3656.4897	-228
3664.1875	-203
3671.8853	-184
3679.5833	-166
3687.281	-154
3694.9788	-161
3702.6768	-179
3710.3748	-203
3718.0723	-245
3725.7703	-301
3733.4683	-355
3741.166	-404
3748.8638	-439
3756.5618	-453
3764.2595	-466
3771.9573	-478
3779.6553	-480
3787.353	-480
3795.051	-485
3802.7488	-485
3810.4465	-480
3818.1445	-473
3825.8425	-466
3833.54	-458
3841.238	-449
3848.936	-444
3856.6338	-441
3864.3315	-431
3872.0295	-426
3879.7273	-431
3887.425	-434
3895.123	-426
3902.8208	-424
3910.5188	-426
3918.2166	-422
3925.9143	-414
3933.6172	-404
3941.3152	-402
3949.0127	-409
3956.7107	-412
3964.4082	-407
3972.1062	-402
3979.804	-407
3987.5017	-419
3995.1995	-426
4002.8975	-424
4010.595	-419
4018.293	-424
4025.9907	-426
4033.6882	-426
4041.3862	-441
4049.084	-458
4056.7817	-377
4064.4795	-68
4072.1775	240
4079.875	-181
4087.573	-1096
4095.2708	-1158
4102.9688	-571
4110.666	-453
4118.3643	-517
4126.062	-350
4133.7593	-299
4141.4575	-363
4149.1553	-331
4156.853	-291
4164.551	-311
4172.2485	-311
4179.9463	-291
4187.644	-279
4195.342	-272
4203.0396	-260
4210.7373	-240
4218.4355	-213
4226.133	-186
4233.8306	-166
4241.529	-147
4249.226	-139
4256.9243	-134
4264.6216	-142
4272.32	-169
4280.0176	-208
4287.7153	-255
4295.413	-311
4303.111	-360
4310.8086	-397
4318.5063	-419
4326.2046	-429
4333.902	-436
4341.5996	-439
4349.298	-436
4356.995	-434
4364.693	-431
4372.391	-426
4380.089	-424
4387.786	-422
4395.4844	-414
4403.182	-407
4410.88	-404
4418.5776	-397
4426.2754	-387
4433.973	-390
4441.671	-390
4449.3687	-385
4457.0664	-380
4464.7646	-385
4472.462	-382
4480.1597	-372
4487.8574	-363
4495.5454	-358
4503.243	-355
4510.9414	-358
4518.639	-358
4526.337	-360
4534.035	-360
4541.733	-370
4549.4307	-385
4557.129	-385
4564.8267	-368
4572.5244	-370
4580.2227	-377
4587.9204	-375
4595.618	-377
4603.3164	-404
4611.014	-419
4618.712	-314
4626.41	24
4634.108	323
4641.8057	-132
4649.504	-1005
4657.2017	-1023
4664.8994	-495
4672.5977	-431
4680.2954	-485
4687.993	-328
4695.6914	-296
4703.389	-360
4711.087	-328
4718.785	-291
4726.483	-309
4734.1807	-306
4741.879	-289
4749.5767	-289
4757.2744	-282
4764.9727	-260
4772.6704	-245
4780.368	-228
4788.0664	-198
4795.764	-171
4803.462	-154
4811.16	-144
4818.858	-139
4826.5557	-149
4834.254	-179
4841.9517	-220
4849.65	-267
4857.3477	-314
4865.0454	-358
4872.7437	-392
4880.4414	-414
4888.139	-431
4895.8374	-439
4903.535	-434
4911.233	-429
4918.931	-429
4926.629	-424
4934.3267	-422
4942.025	-419
4949.7227	-414
4957.4204	-412
4965.1187	-404
4972.8164	-397
4980.514	-395
4988.2124	-392
4995.91	-385
5003.608	-380
5011.306	-377
5019.004	-372
5026.7017	-372
5034.4	-377
5042.0977	-375
5049.7954	-358
5057.509	-350
5065.206	-350
5072.9043	-343
5080.6016	-345
5088.2993	-348
5095.9976	-345
5103.695	-355
5111.3926	-368
5119.0903	-368
5126.788	-363
5134.486	-368
5142.1836	-368
5149.8813	-365
5157.5786	-370
5165.277	-380
5172.9746	-402
5180.672	-390
5188.37	-225
5196.0674	161
5203.765	345
5211.4634	-287
5219.1606	-1023
5226.8584	-829
5234.5557	-404
5242.254	-439
5249.9517	-431
5257.649	-294
5265.347	-309
5273.0444	-341
5280.742	-294
5288.4404	-282
5296.1377	-299
5303.8354	-282
5311.533	-264
5319.231	-262
5326.928	-252
5334.6265	-235
5342.324	-215
5350.0215	-188
5357.7197	-159
5365.417	-134
5373.1147	-117
5380.813	-105
5388.5103	-105
5396.208	-120
5403.906	-144
5411.6035	-181
5419.3013	-230
5426.999	-284
5434.697	-326
5442.394	-360
5450.092	-387
5457.79	-395
5465.4873	-397
5473.185	-402
5480.883	-399
5488.5806	-395
5496.2783	-390
5503.976	-387
5511.674	-385
5519.371	-380
5527.0693	-375
5534.767	-375
5542.4644	-375
5550.1626	-363
5557.86	-360
5565.5576	-358
5573.2554	-345
5580.953	-343
5588.651	-350
5596.3486	-345
5604.0464	-338
5611.7437	-338
5619.442	-348
5627.1396	-345
5634.837	-336
5642.5347	-326
5650.2324	-314
5657.93	-309
5665.628	-316
5673.3257	-318
5681.0234	-311
5688.7207	-314
5696.419	-323
5704.1167	-333
5711.814	-338
5719.512	-336
5727.2095	-336
5734.907	-333
5742.6055	-331
5750.3027	-343
5758.0005	-372
5765.698	-365
5773.396	-213
5781.0938	161
5788.7915	404
5796.4893	-161
5804.1865	-971
5811.885	-863
5819.5825	-412
5827.28	-417
5834.978	-417
5842.6753	-260
5850.373	-262
5858.071	-306
5865.7686	-264
5873.4663	-245
5881.1636	-255
5888.862	-240
5896.559	-228
5904.257	-225
5911.955	-215
5919.6523	-196
5927.35	-179
5935.048	-159
5942.7456	-125
5950.4434	-98
5958.141	-76
5965.839	-58
5973.536	-56
5981.2344	-66
5988.932	-90
5996.6294	-130
6004.3276	-181
6012.025	-242
6019.7227	-294
6027.421	-323
6035.118	-343
6042.816	-368
6050.513	-380
6058.2114	-375
6065.909	-372
6073.6064	-375
6081.3047	-372
6089.002	-365
6096.6997	-355
6104.398	-353
6112.095	-353
6119.793	-343
6127.4907	-338
6135.1885	-338
6142.8857	-336
6150.584	-328
6158.2817	-326
6165.979	-323
6173.6772	-316
6181.375	-311
6189.0723	-311
6196.7705	-314
6204.468	-314
6212.1655	-314
6219.864	-314
6227.561	-306
6235.259	-296
6242.956	-284
6250.6543	-274
6258.3516	-274
6266.0493	-284
6273.7476	-284
6281.445	-282
6289.1426	-291
6296.8403	-301
6304.538	-309
6312.236	-309
6319.9336	-304
6327.6313	-299
6335.3286	-299
6343.027	-309
6350.7246	-338
6358.422	-350
6366.12	-257
6373.8174	66
6381.515	434
6389.2134	76
6396.9106	-885
6404.6084	-1050
6412.306	-480
6420.004	-348
6427.7017	-424
6435.399	-260
6443.097	-196
6450.7944	-264
6458.492	-235
6466.1904	-196
6473.8877	-218
6481.5854	-218
6489.283	-191
6496.981	-186
6504.678	-179
6512.3765	-159
6520.074	-147
6527.7715	-125
6535.4697	-93
6543.167	-63
6550.8647	-36
6558.563	-19
6566.2603	-19
6573.958	-29
6581.656	-44
6589.3535	-83
6597.0513	-144
6604.749	-206
6612.447	-255
6620.144	-299
6627.8423	-328
6635.54	-343
6643.2373	-355
6650.935	-360
6658.633	-358
6666.3306	-358
6674.0283	-350
6681.726	-345
6689.424	-345
6697.121	-338
6704.8193	-331
6712.517	-333
6720.2144	-333
6727.9126	-326
6735.61	-318
6743.3076	-314
6751.006	-309
6758.703	-304
6766.401	-294
6774.0986	-294
6781.7964	-296
6789.494	-294
6797.192	-294
6804.8896	-291
6812.587	-291
6820.285	-291
6827.983	-289
6835.68	-287
6843.3784	-294
6851.0757	-296
6858.7734	-287
6866.4707	-284
6874.169	-279
6881.8667	-269
6889.564	-267
6897.262	-269
6904.9595	-262
6912.657	-264
6920.3555	-282
6928.0527	-287
6935.7505	-282
6943.448	-284
6951.146	-287
6958.8438	-284
6966.5415	-284
6974.2393	-291
6981.9365	-314
6989.635	-306
6997.3325	-152
7005.03	235
7012.728	446
7020.4253	-196
7028.123	-1028
7035.8213	-853
7043.5186	-358
7051.2163	-377
7058.9136	-380
7066.612	-203
7074.3096	-206
7082.007	-260
7089.705	-213
7097.4023	-193
7105.1	-213
7112.798	-201
7120.4956	-181
7128.1934	-179
7135.891	-166
7143.589	-154
7151.286	-142
7158.9844	-115
7166.682	-80
7174.3794	-56
7182.0776	-41
7189.775	-22
7197.4727	-9
7205.171	-22
7212.868	-53
7220.566	-90
7228.263	-139
7235.9614	-201
7243.659	-252
7251.3564	-289
7259.0547	-316
7266.752	-336
7274.4497	-343
7282.148	-345
7289.845	-345
7297.543	-345
7305.2256	-341
7312.924	-336
7320.6216	-333
7328.3193	-326
7336.0176	-323
7343.7153	-323
7351.413	-318
7359.1113	-316
7366.809	-309
7374.507	-299
7382.205	-294
7389.903	-294
7397.6006	-294
7405.299	-291
7412.9966	-287
7420.6943	-284
7428.3926	-284
7436.0903	-279
7443.788	-277
7451.4863	-282
7459.184	-287
7466.882	-289
7474.58	-287
7482.278	-282
7489.9756	-284
7497.674	-289
7505.3716	-284
7513.0693	-282
7520.7676	-284
7528.4653	-287
7536.163	-289
7543.8613	-289
7551.559	-289
7559.2573	-287
7566.955	-277
7574.653	-267
7582.351	-262
7590.049	-264
7597.7466	-264
7605.445	-267
7613.1426	-272
7620.8403	-279
7628.5386	-282
7636.2363	-282
7643.934	-279
7651.6323	-282
7659.33	-284
7667.028	-282
7674.726	-294
7682.424	-316
7690.1216	-294
7697.82	-122
7705.5176	267
7713.2153	439
7720.9136	-215
7728.6113	-964
7736.309	-775
7744.0073	-355
7751.705	-377
7759.403	-358
7767.101	-218
7774.799	-238
7782.4966	-269
7790.195	-220
7797.8926	-211
7805.5903	-228
7813.2886	-213
7820.9863	-196
7828.684	-191
7836.3823	-184
7844.08	-169
7851.778	-149
7859.476	-125
7867.184	-98
7874.882	-78
7882.5796	-53
7890.2773	-31
7897.975	-31
7905.673	-36
7913.3706	-49
7921.0684	-83
7928.7666	-134
7936.464	-188
7944.1616	-240
7951.86	-287
7959.5576	-316
7967.255	-331
7974.953	-343
7982.651	-348
7990.348	-348
7998.0464	-345
8005.744	-341
8013.442	-333
8021.1396	-331
8028.8374	-331
8036.535	-326
8044.2334	-323
8051.9307	-318
8059.6284	-316
8067.3267	-314
8075.0244	-309
8082.7217	-304
8090.42	-299
8098.1177	-299
8105.815	-296
8113.513	-296
8121.211	-299
8128.9087	-294
8136.6064	-287
8144.304	-284
8152.002	-287
8159.7	-289
8167.3975	-291
8175.095	-291
8182.7935	-291
8190.4907	-287
8198.188	-284
8205.887	-289
8213.584	-289
8221.282	-284
8228.9795	-282
8236.678	-279
8244.376	-272
8252.073	-274
8259.7705	-277
8267.469	-272
8275.167	-269
8282.864	-274
8290.5625	-279
8298.26	-274
8305.957	-267
8313.655	-260
8321.354	-250
8329.051	-240
8336.749	-238
8344.446	-238
8352.145	-240
8359.843	-247
8367.54	-252
8375.237	-257
8382.936	-262
8390.633	-264
8398.331	-257
8406.028	-255
8413.727	-267
8421.424	-284
8429.122	-296
8436.82	-262
8444.518	-58
8452.215	350
8459.913	407
8467.611	-382
8475.309	-1013
8483.007	-667
8490.704	-311
8498.402	-387
8506.1	-318
8513.798	-181
8521.495	-220
8529.193	-242
8536.891	-196
8544.589	-191
8552.287	-203
8559.984	-186
8567.682	-174
8575.38	-176
8583.078	-166
8590.775	-147
8598.474	-130
8606.171	-107
8613.868	-85
8621.567	-56
8629.265	-24
8636.962	-7
8644.66	-4
8652.357	-9
8660.056	-29
8667.754	-68
8675.451	-122
8683.149	-174
8690.847	-223
8698.544	-264
8706.242	-299
8713.94	-323
8721.638	-331
8729.336	-328
8737.033	-333
8744.731	-336
8752.429	-323
8760.126	-316
8767.825	-318
8775.522	-316
8783.22	-309
8790.918	-301
8798.615	-301
8806.3125	-299
8814.012	-289
8821.709	-289
8829.407	-291
8837.1045	-284
8844.802	-279
8852.5	-282
8860.198	-279
8867.8955	-277
8875.594	-274
8883.291	-272
8890.988	-272
8898.687	-272
8906.385	-274
8914.083	-272
8921.78	-269
8929.478	-272
8937.176	-272
8944.873	-269
8952.571	-269
8960.27	-272
8967.967	-272
8975.665	-277
8983.362	-277
8991.06	-267
8998.759	-255
9006.456	-245
9014.153	-240
9021.852	-245
9029.549	-245
9037.246	-242
9044.945	-250
9052.643	-262
9060.341	-267
9068.038	-260
9075.735	-255
9083.434	-262
9091.132	-264
9098.829	-262
9106.527	-282
9114.225	-304
9121.922	-250
9129.62	-2
9137.318	407
9145.017	314
9152.714	-601
9160.411	-1096
9168.109	-606
9175.807	-301
9183.504	-402
9191.203	-291
9198.9	-161
9206.598	-215
9214.296	-220
9221.993	-171
9229.692	-179
9237.39	-191
9245.087	-171
9252.785	-161
9260.482	-154
9268.18	-139
9275.878	-130
9283.576	-110
9291.274	-78
9298.972	-53
9306.669	-29
9314.367	2
9322.064	17
9329.763	12
9337.461	2
9345.158	-24
9352.855	-73
9360.554	-137
9368.251	-196
9375.95	-250
9383.647	-291
9391.345	-321
9399.043	-336
9406.74	-341
9414.4375	-345
9422.137	-345
9429.834	-338
9437.531	-328
9445.2295	-328
9452.927	-328
9460.625	-326
9468.323	-318
9476.0205	-316
9483.719	-314
9491.416	-306
9499.113	-299
9506.812	-294
9514.51	-287
9522.207	-284
9529.905	-287
9537.603	-282
9545.301	-274
9553.004	-279
9560.701	-284
9568.398	-277
9576.097	-269
9583.794	-272
9591.491	-277
9599.19	-279
9606.888	-279
9614.585	-279
9622.283	-274
9629.98	-269
9637.678	-269
9645.375	-274
9653.074	-277
9660.771	-277
9668.469	-272
9676.167	-262
9683.864	-250
9691.562	-245
9699.261	-242
9706.958	-242
9714.655	-242
9722.353	-250
9730.051	-260
9737.748	-264
9745.446	-264
9753.145	-262
9760.842	-257
9768.539	-262
9776.236	-267
9783.935	-274
9791.633	-296
9799.33	-291
9807.028	-157
9814.726	213
9822.423	485
9830.121	-76
9837.819	-978
9845.517	-915
9853.214	-372
9860.912	-341
9868.609	-377
9876.307	-211
9884.006	-188
9891.703	-240
9899.4	-206
9907.099	-188
9914.796	-203
9922.493	-188
9930.19	-176
9937.89	-181
9945.587	-169
9953.284	-147
9960.982	-139
9968.68	-127
9976.377	-88
9984.075	-49
9991.773	-36
9999.471	-24
10007.168	-9
10014.866	-12
10022.563	-19
10030.262	-56
10037.96	-130
10045.657	-191
10053.3545	-230
10061.052	-272
10068.75	-311
10076.447	-333
10084.1455	-348
10091.844	-363
10099.541	-358
10107.238	-341
10114.937	-343
10122.634	-345
10130.332	-333
10138.029	-323
10145.728	-326
10153.425	-333
10161.122	-321
10168.82	-309
10176.519	-323
10184.216	-328
10191.914	-311
10199.611	-304
10207.309	-306
10215.006	-294
10222.705	-282
10230.402	-284
10238.1	-289
10245.798	-279
10253.495	-279
10261.192	-287
10268.892	-296
10276.589	-294
10284.286	-284
10291.983	-277
10299.682	-284
10307.379	-299
10315.076	-289
10322.775	-274
10330.473	-282
10338.17	-287
10345.867	-272
10353.565	-255
10361.263	-260
10368.961	-264
10376.659	-264
10384.356	-272
10392.054	-274
10399.752	-272
10407.449	-279
10415.147	-279
10422.845	-260
10430.543	-250
10438.24	-264
10445.9375	-289
10453.636	-296
10461.334	-250
10469.031	-39
10476.7295	372
10484.427	436
10492.124	-399
10499.821	-1138
10507.52	-794
10515.218	-345
10522.915	-387
10530.613	-311
10538.311	-149
10546.008	-198
10553.706	-242
10561.404	-184
10569.102	-157
10576.799	-166
10584.497	-164
10592.194	-154
10599.892	-147
10607.591	-139
10615.288	-132
10622.985	-103
10630.683	-61
10638.381	-36
10646.078	-22
10653.775	4
10661.475	24
10669.172	26
10676.869	26
10684.567	7
10692.265	-49
10699.962	-105
10707.66	-152
10715.358	-215
10723.056	-274
10730.753	-291
10738.451	-299
10746.148	-314
10753.847	-309
10761.545	-304
10769.242	-316
10776.939	-316
10784.637	-299
10792.335	-294
10800.033	-299
10807.73	-287
10815.429	-269
10823.126	-274
10830.823	-287
10838.521	-284
10846.22	-274
10853.917	-272
10861.614	-264
10869.3125	-252
10877.01	-257
10884.707	-257
10892.405	-242
10900.104	-242
10907.801	-250
10915.499	-245
10923.196	-240
10930.894	-250
10938.591	-260
10946.29	-264
10953.987	-264
10961.685	-252
10969.383	-242
10977.08	-245
10984.777	-247
10992.476	-242
11000.174	-233
11007.871	-225
11015.568	-230
11023.267	-247
11030.964	-252
11038.662	-240
11046.36	-247
11054.058	-260
11061.755	-242
11069.452	-238
11077.15	-274
11084.848	-274
11092.546	-152
11100.244	157
11107.941	488
11115.639	174
11123.337	-733
11131.034	-971
11138.732	-466
11146.43	-287
11154.128	-358
11161.825	-240
11169.522	-166
11177.221	-211
11184.919	-193
11192.616	-171
11200.313	-196
11208.012	-193
11215.709	-161
11223.406	-149
11231.105	-149
11238.803	-137
11246.5	-120
11254.198	-110
11261.8955	-88
11269.593	-51
11277.292	-26
11284.989	-19
11292.687	-12
11300.384	-7
11308.082	-7
11315.779	-29
11323.477	-100
11331.176	-169
11338.873	-203
11346.57	-238
11354.268	-272
11361.966	-289
11369.663	-299
11377.361	-306
11385.06	-309
11392.757	-301
11400.454	-289
11408.152	-296
11415.85	-301
11423.548	-287
11431.245	-284
11438.943	-282
11446.641	-272
11454.338	-269
11462.036	-257
11469.734	-250
11477.432	-262
11485.13	-255
11492.827	-242
11500.524	-257
11508.222	-257
11515.92	-230
11523.618	-228
11531.315	-235
11539.014	-225
11546.711	-238
11554.408	-260
11562.105	-257
11569.805	-245
11577.502	-240
11585.199	-223
11592.897	-206
11600.595	-240
11608.292	-264
11615.991	-208
11623.688	-191
11631.386	-242
11639.083	-255
11646.781	-228
11654.479	-228
11662.176	-242
11669.875	-233
11677.572	-230
11685.27	-245
11692.968	-260
11700.665	-257
11708.362	-152
11716.061	176
11723.759	520
11731.456	159
11739.153	-767
11746.852	-961
11754.549	-456
11762.247	-321
11769.944	-365
11777.643	-206
11785.34	-144
11793.037	-211
11800.735	-186
11808.434	-139
11816.131	-166
11823.829	-166
11831.526	-137
11839.224	-147
11846.922	-149
11854.62	-122
11862.317	-105
11870.015	-78
11877.713	-51
11885.41	-36
11893.107	-2
11900.806	26
11908.504	29
11916.201	29
11923.898	17
11931.597	-29
11939.294	-93
11946.991	-144
11954.69	-179
11962.388	-208
11970.085	-257
11977.783	-301
11985.48	-304
11993.178	-289
12000.876	-301
12008.574	-318
12016.271	-299
12023.969	-274
12031.667	-277
12039.364	-272
12047.0625	-255
12054.761	-269
12062.458	-291
12070.155	-267
12077.853	-240
12085.551	-250
12093.248	-247
12100.946	-235
12108.645	-242
12116.342	-242
12124.039	-223
12131.736	-220
12139.435	-228
12147.133	-225
12154.83	-220
12162.528	-220
12170.226	-225
12177.923	-228
12185.621	-225
12193.319	-233
12201.017	-247
12208.714	-255
12216.412	-247
12224.109	-230
12231.807	-223
12239.506	-225
12247.203	-228
12254.9	-245
12262.599	-247
12270.296	-228
12277.993	-225
12285.69	-235
12293.39	-235
12301.087	-247
12308.784	-257
12316.482	-184
12324.18	80
12331.877	471
12339.576	353
12347.273	-539
12354.971	-1037
12362.668	-606
12370.366	-291
12378.063	-341
12385.762	-245
12393.46	-149
12401.157	-191
12408.8545	-188
12416.553	-152
12424.25	-154
12431.948	-154
12439.6455	-147
12447.344	-191
12455.041	-233
12462.738	-220
12470.437	-208
12478.134	-203
12485.832	-169
12493.529	-139
12501.228	-115
12508.925	-66
12516.622	-22
12524.32	-7
12532.019	-2
12539.716	-24
12547.414	-83
12555.111	-134
12562.809	-157
12570.506	-193
12578.205	-252
12585.902	-284
12593.6	-277
12601.298	-269
12608.995	-277
12616.692	-277
12624.392	-267
12632.089	-260
12639.786	-260
12647.483	-262
12655.182	-262
12662.879	-252
12670.576	-223
12678.275	-213
12685.973	-238
12693.67	-242
12701.368	-228
12709.065	-235
12716.763	-240
12724.461	-230
12732.159	-220
12739.856	-213
12747.554	-228
12755.252	-252
12762.949	-245
12770.647	-223
12778.345	-228
12786.043	-242
12793.74	-247
12801.4375	-250
12809.136	-247
12816.834	-245
12824.531	-257
12832.2295	-262
12839.927	-262
12847.624	-279
12855.321	-301
12863.0205	-301
12870.718	-299
12878.415	-316
12886.113	-326
12893.811	-328
12901.508	-348
12909.206	-358
12916.904	-318
12924.597	-176
12932.295	159
12939.992	363
12947.689	-201
12955.388	-993
12963.085	-910
12970.783	-451
12978.481	-417
12986.179	-439
12993.877	-318
13001.574	-304
13009.271	-345
13016.971	-323
13024.668	-301
13032.365	-306
13040.063	-301
13047.761	-296
13055.458	-301
13063.156	-294
13070.8545	-260
13078.553	-245
13086.25	-235
13093.947	-203
13101.6455	-181
13109.343	-166
13117.041	-137
13124.739	-125
13132.437	-142
13140.134	-157
13147.832	-161
13155.529	-191
13163.229	-245
13170.926	-301
13178.623	-358
13186.321	-385
13194.019	-377
13201.716	-375
13209.415	-382
13217.112	-382
13224.81	-372
13232.508	-358
13240.205	-348
13247.903	-338
13255.602	-326
13263.299	-323
13270.997	-316
13278.694	-287
13286.392	-262
13294.09	-267
13301.788	-274
13309.485	-269
13317.184	-255
13324.881	-247
13332.579	-252
13340.276	-250
13347.975	-238
13355.673	-228
13363.37	-228
13371.067	-235
13378.766	-242
13386.463	-242
13394.162	-238
13401.859	-225
13409.557	-211
13417.255	-211
13424.952	-213
13432.649	-220
13440.349	-228
13448.046	-220
13455.743	-233
13463.441	-252
13471.139	-238
13478.837	-211
13486.545	-215
13494.242	-233
13501.939	-235
13509.637	-230
13517.336	-179
13525.033	66
13532.73	446
13540.428	304
13548.126	-532
13555.823	-915
13563.521	-485
13571.219	-252
13578.917	-328
13586.614	-233
13594.312	-134
13602.009	-181
13609.706	-193
13617.405	-154
13625.103	-159
13632.8	-174
13640.497	-147
13648.195	-127
13655.893	-132
13663.591	-122
13671.288	-100
13678.985	-93
13686.684	-80
13694.381	-58
13702.078	-36
13709.775	-12
13717.475	-7
13725.172	-17
13732.869	-26
13740.566	-58
13748.265	-100
13755.962	-142
13763.66	-198
13771.357	-240
13779.055	-252
13786.753	-284
13794.45	-323
13802.147	-321
13809.846	-294
13817.544	-289
13825.241	-299
13832.938	-304
13840.636	-294
13848.334	-287
13856.032	-291
13863.7295	-284
13871.427	-264
13879.124	-264
13886.822	-274
13894.52	-267
13902.217	-250
13909.915	-247
13917.613	-264
13925.311	-264
13933.008	-255
13940.705	-260
13948.402	-260
13956.102	-257
13963.799	-272
13971.496	-274
13979.193	-257
13986.892	-257
13994.589	-255
14002.286	-238
14009.984	-240
14017.683	-245
14025.38	-228
14033.077	-223
14040.774	-242
14048.468	-257
14056.165	-250
14063.862	-245
14071.561	-247
14079.259	-240
14086.956	-235
14094.653	-247
14102.352	-279
14110.049	-274
14117.747	-115
14125.445	255
14133.143	429
14140.84	-164
14148.537	-888
14156.235	-733
14163.934	-326
14171.631	-328
14179.329	-304
14187.026	-159
14194.724	-166
14202.422	-208
14210.12	-169
14217.817	-152
14225.515	-169
14233.213	-161
14240.91	-139
14248.607	-139
14256.307	-142
14264.004	-125
14271.701	-100
14279.398	-76
14287.097	-53
14294.794	-31
14302.491	-4
14310.19	7
14317.888	4
14325.585	-4
14333.283	-24
14340.98	-51
14348.678	-90
14356.376	-137
14364.074	-181
14371.771	-213
14379.469	-240
14387.167	-262
14394.864	-264
14402.5625	-262
14410.261	-262
14417.958	-264
14425.655	-260
14433.353	-257
14441.051	-260
14448.749	-260
14456.446	-247
14464.145	-242
14471.842	-247
14479.539	-245
14487.237	-233
14494.935	-235
14502.633	-235
14510.33	-230
14518.028	-230
14525.726	-233
14533.423	-235
14541.121	-240
14548.819	-235
14556.517	-235
14564.214	-240
14571.912	-230
14579.609	-220
14587.307	-223
14595.006	-230
14602.703	-228
14610.4	-213
14618.099	-206
14625.796	-220
14633.493	-235
14641.19	-223
14648.89	-213
14656.587	-230
14664.284	-233
14671.982	-223
14679.68	-238
14687.377	-264
14695.076	-262
14702.773	-147
14710.471	174
14718.168	365
14725.866	-157
14733.563	-831
14741.262	-694
14748.96	-311
14756.657	-321
14764.3545	-296
14772.053	-166
14779.75	-188
14787.448	-218
14795.1455	-171
14802.844	-161
14810.541	-174
14818.238	-164
14825.937	-159
14833.635	-154
14841.332	-142
14849.03	-132
14856.728	-120
14864.425	-95
14872.122	-71
14879.82	-58
14887.519	-51
14895.216	-44
14902.914	-41
14910.611	-51
14918.309	-63
14926.006	-88
14933.705	-132
14941.402	-176
14949.1	-208
14956.798	-240
14964.495	-272
14972.192	-289
14979.892	-294
14987.589	-299
14995.286	-296
15002.983	-294
15010.682	-291
15018.379	-294
15026.077	-294
15033.775	-287
15041.473	-287
15049.17	-289
15056.868	-274
15064.565	-272
15072.263	-282
15079.961	-274
15087.659	-267
15095.356	-274
15103.054	-274
15110.752	-267
15118.449	-267
15126.147	-272
15133.845	-282
15141.543	-282
15149.24	-269
15156.9375	-267
15164.636	-272
15172.334	-267
15180.031	-257
15187.7295	-252
15195.427	-252
15203.124	-255
15210.822	-262
15218.5205	-272
15226.218	-274
15233.915	-267
15241.613	-260
15249.311	-269
15257.008	-279
15264.707	-279
15272.404	-294
15280.102	-296
15287.799	-174
15295.497	147
15303.194	326
15310.892	-166
15318.591	-802
15326.288	-691
15333.985	-350
15341.684	-348
15349.381	-314
15357.078	-196
15364.776	-223
15372.475	-252
15380.172	-211
15387.869	-203
15395.567	-213
15403.265	-198
15410.963	-198
15418.661	-201
15426.358	-174
15434.056	-154
15441.753	-157
15449.451	-142
15457.149	-115
15464.847	-105
15472.545	-93
15480.242	-76
15487.939	-68
15495.637	-76
15503.335	-88
15511.033	-117
15518.73	-164
15526.429	-203
15534.126	-233
15541.823	-272
15549.521	-291
15557.22	-296
15564.917	-311
15572.614	-328
15580.3125	-316
15588.01	-301
15595.707	-309
15603.406	-314
15611.104	-304
15618.801	-289
15626.499	-287
15634.196	-291
15641.894	-289
15649.591	-282
15657.29	-277
15664.987	-279
15672.685	-272
15680.383	-262
15688.08	-272
15695.777	-279
15703.477	-274
15711.174	-274
15718.871	-284
15726.568	-282
15734.267	-269
15741.964	-264
15749.662	-269
15757.36	-262
15765.058	-247
15772.755	-245
15780.453	-247
15788.15	-255
15795.849	-264
15803.546	-260
15811.244	-257
15818.941	-264
15826.639	-264
15834.337	-262
15842.035	-277
15849.732	-299
15857.43	-287
15865.128	-117
15872.825	233
15880.522	223
15888.221	-495
15895.919	-966
15903.616	-608
15911.314	-318
15919.012	-363
15926.709	-269
15934.406	-161
15942.105	-196
15949.803	-213
15957.5	-184
15965.198	-174
15972.8955	-176
15980.593	-164
15988.292	-154
15995.989	-157
16003.687	-147
16011.384	-130
16019.082	-115
16026.779	-105
16034.478	-85
16042.176	-53
16049.873	-41
16057.57	-49
16065.269	-51
16072.966	-61
16080.663	-93
16088.361	-115
16096.06	-139
16103.757	-191
16111.454	-242
16119.152	-262
16126.85	-269
16134.548	-284
16142.245	-294
16149.943	-291
16157.641	-289
16165.338	-299
16173.036	-296
16180.734	-282
16188.432	-272
16196.13	-274
16203.827	-279
16211.524	-274
16219.222	-262
16226.921	-257
16234.618	-257
16242.315	-252
16250.014	-245
16257.711	-250
16265.408	-257
16273.107	-255
16280.805	-255
16288.502	-257
16296.199	-255
16303.897	-250
16311.595	-250
16319.292	-255
16326.991	-247
16334.688	-230
16342.386	-235
16350.084	-257
16357.781	-262
16365.479	-260
16373.177	-262
16380.875	-260
16388.572	-250
16396.27	-262
16403.969	-296
16411.666	-309
16419.363	-238
16427.06	31
16434.758	309
16442.457	-53
16450.154	-856
16457.852	-927
16465.549	-424
16473.246	-309
16480.945	-348
16488.643	-203
16496.34	-154
16504.037	-206
16511.736	-179
16519.434	-149
16527.13	-169
16534.828	-169
16542.527	-159
16550.225	-166
16557.922	-157
16565.62	-130
16573.316	-120
16581.014	-112
16588.713	-93
16596.41	-76
16604.107	-61
16611.807	-49
16619.504	-44
16627.201	-58
16634.9	-80
16642.598	-100
16650.295	-142
16657.992	-186
16665.69	-213
16673.387	-245
16681.084	-279
16688.783	-296
16696.48	-304
16704.178	-299
16711.875	-299
16719.574	-309
16727.271	-301
16734.969	-289
16742.668	-294
16750.365	-294
16758.062	-277
16765.76	-269
16773.457	-269
16781.156	-267
16788.854	-264
16796.55	-262
16804.248	-257
16811.945	-260
16819.645	-260
16827.342	-255
16835.04	-252
16842.738	-252
16850.436	-247
16858.152	-245
16865.85	-238
16873.547	-235
16881.246	-233
16888.943	-233
16896.64	-240
16904.338	-250
16912.035	-252
16919.732	-255
16927.43	-257
16935.127	-250
16942.824	-252
16950.521	-260
16958.219	-267
16965.916	-287
16973.613	-262
16981.31	-51
16989.01	289
16996.707	171
17004.404	-628
17012.102	-1030
17019.799	-579
17027.496	-279
17035.193	-343
17042.89	-255
17050.588	-159
17058.285	-203
17065.982	-208
17073.68	-164
17081.377	-161
17089.076	-176
17096.773	-166
17104.47	-159
17112.168	-152
17119.865	-132
17127.562	-115
17135.26	-100
17142.959	-76
17150.656	-61
17158.354	-58
17166.05	-46
17173.748	-39
17181.443	-49
17189.143	-56
17196.84	-76
17204.537	-120
17212.234	-171
17219.932	-213
17227.629	-247
17235.326	-269
17243.025	-289
17250.723	-306
17258.42	-311
17266.117	-316
17273.814	-321
17281.512	-309
17289.209	-296
17296.906	-296
17304.605	-296
17312.3	-287
17320	-284
17327.695	-287
17335.395	-274
17343.09	-262
17350.79	-260
17358.486	-264
17366.184	-260
17373.88	-260
17381.578	-264
17389.275	-264
17396.973	-255
17404.67	-250
17412.37	-257
17420.055	-255
17427.754	-247
17435.451	-242
17443.148	-240
17450.846	-247
17458.543	-262
17466.24	-267
17473.938	-262
17481.637	-255
17489.334	-255
17497.031	-257
17504.729	-260
17512.426	-277
17520.123	-301
17527.822	-279
17535.52	-88
17543.217	287
17550.914	323
17558.611	-385
17566.309	-937
17574.006	-625
17581.705	-284
17589.402	-331
17597.1	-282
17604.797	-176
17612.494	-215
17620.191	-235
17627.89	-196
17635.588	-191
17643.285	-196
17650.982	-184
17658.68	-186
17666.377	-186
17674.076	-159
17681.773	-144
17689.47	-134
17697.168	-117
17704.865	-105
17712.562	-83
17720.26	-56
17727.959	-53
17735.656	-71
17743.354	-83
17751.05	-100
17758.748	-137
17766.447	-174
17774.143	-211
17781.842	-250
17789.54	-279
17797.236	-296
17804.934	-301
17812.63	-304
17820.33	-306
17828.027	-306
17835.725	-306
17843.422	-306
17851.12	-301
17858.816	-296
17866.514	-291
17874.213	-284
17881.91	-279
17889.607	-282
17897.305	-279
17905.002	-272
17912.701	-264
17920.396	-267
17928.096	-264
17935.793	-262
17943.49	-262
17951.188	-264
17958.885	-262
17966.584	-257
17974.28	-257
17981.979	-257
17989.676	-250
17997.373	-242
18005.072	-240
18012.768	-242
18020.467	-255
18028.162	-264
18035.861	-260
18043.559	-262
18051.256	-262
18058.955	-252
18066.65	-260
18074.35	-291
18082.047	-304
18089.744	-218
18097.441	83
18105.139	372
18112.838	-9
18120.533	-794
18128.232	-836
18135.93	-375
18143.627	-296
18151.326	-336
18159.021	-208
18166.72	-179
18174.416	-225
18182.115	-211
18189.812	-193
18197.51	-198
18205.209	-191
18212.904	-186
18220.604	-179
18228.299	-166
18235.998	-157
18243.697	-139
18251.393	-115
18259.092	-100
18266.787	-85
18274.486	-63
18282.184	-44
18289.88	-46
18297.58	-63
18305.275	-78
18312.975	-98
18320.67	-137
18328.37	-188
18336.066	-235
18343.764	-267
18351.463	-291
18359.158	-309
18366.857	-311
18374.553	-309
18382.252	-309
18389.951	-306
18397.646	-301
18405.346	-301
18413.041	-296
18420.74	-284
18428.436	-284
18436.135	-289
18443.834	-287
18451.53	-277
18459.229	-269
18466.924	-267
18474.623	-262
18482.322	-257
18490.018	-262
18497.717	-267
18505.412	-262
18513.111	-260
18520.807	-264
18528.506	-267
18536.205	-267
18543.887	-257
18551.584	-245
18559.281	-247
18566.98	-252
18574.678	-240
18582.375	-233
18590.072	-242
18597.771	-257
18605.467	-257
18613.166	-250
18620.865	-250
18628.56	-255
18636.26	-257
18643.957	-252
18651.654	-267
18659.354	-287
18667.05	-255
18674.748	-53
18682.445	309
18690.145	260
18697.84	-485
18705.54	-910
18713.238	-529
18720.936	-277
18728.633	-341
18736.33	-252
18744.03	-164
18751.725	-213
18759.424	-213
18767.123	-176
18774.818	-186
18782.518	-193
18790.215	-186
18797.912	-174
18805.611	-161
18813.309	-154
18821.006	-142
18828.703	-122
18836.402	-100
18844.098	-78
18851.797	-56
18859.496	-46
18867.191	-41
18874.89	-36
18882.588	-51
18890.287	-78
18897.984	-110
18905.682	-154
18913.38	-201
18921.076	-238
18928.775	-262
18936.473	-289
18944.17	-306
18951.87	-306
18959.566	-309
18967.264	-309
18974.96	-299
18982.66	-294
18990.357	-291
18998.055	-284
19005.754	-279
19013.45	-279
19021.148	-277
19028.846	-272
19036.545	-264
19044.242	-260
19051.94	-262
19059.639	-264
19067.334	-264
19075.033	-262
19082.732	-257
19090.428	-255
19098.127	-257
19105.824	-257
19113.521	-255
19121.219	-252
19128.918	-257
19136.615	-262
19144.312	-252
19152.012	-240
19159.707	-235
19167.406	-235
19175.105	-235
19182.8	-223
19190.5	-228
19198.197	-247
19205.896	-257
19213.592	-255
19221.291	-247
19228.99	-240
19236.686	-238
19244.385	-242
19252.082	-260
19259.78	-277
19267.477	-255
19275.176	-105
19282.873	225
19290.57	338
19298.27	-262
19305.965	-868
19313.664	-647
19321.363	-284
19329.059	-311
19336.758	-287
19344.455	-169
19352.154	-188
19359.85	-223
19367.549	-193
19375.248	-181
19382.943	-186
19390.643	-171
19398.34	-159
19406.037	-154
19413.736	-147
19421.434	-137
19429.13	-120
19436.828	-103
19444.527	-93
19452.223	-71
19459.922	-41
19467.621	-29
19475.316	-31
19483.016	-39
19490.713	-58
19498.41	-88
19506.11	-125
19513.807	-171
19521.506	-220
19529.201	-255
19536.9	-272
19544.598	-287
19552.295	-299
19559.994	-301
19567.691	-296
19575.389	-296
19583.086	-291
19590.785	-279
19598.48	-279
19606.18	-289
19613.879	-287
19621.574	-264
19629.273	-260
19636.97	-267
19644.668	-264
19652.367	-262
19660.064	-264
19667.791	-262
19675.49	-257
19683.188	-262
19690.885	-272
19698.582	-262
19706.28	-257
19713.977	-262
19721.674	-257
19729.371	-250
19737.07	-255
19744.766	-260
19752.463	-260
19760.16	-264
19767.857	-260
19775.555	-242
19783.252	-238
19790.951	-238
19798.646	-228
19806.346	-215
19814.041	-218
19821.74	-228
19829.436	-245
19837.135	-257
19844.832	-252
19852.53	-245
19860.227	-238
19867.924	-240
19875.621	-252
19883.318	-267
19891.016	-264
19898.715	-203
19906.41	26
19914.11	333
19921.805	115
19929.502	-640
19937.2	-858
19944.896	-436
19952.596	-272
19960.291	-321
19967.99	-220
19975.686	-169
19983.385	-213
19991.08	-196
19998.78	-169
20006.477	-179
20014.174	-181
20021.871	-164
20029.568	-157
20037.266	-152
20044.963	-144
20052.66	-137
20060.36	-115
20068.055	-83
20075.754	-63
20083.45	-49
20091.148	-31
20098.844	-24
20106.541	-29
20114.24	-36
20121.936	-58
20129.635	-98
20137.33	-144
20145.03	-181
20152.725	-220
20160.424	-260
20168.121	-279
20175.818	-289
20183.516	-299
20191.213	-304
20198.91	-299
20206.607	-294
20214.305	-287
20222.004	-282
20229.68	-282
20237.377	-279
20245.076	-272
20252.771	-272
20260.47	-269
20268.168	-262
20275.865	-262
20283.564	-267
20291.26	-260
20298.959	-250
20306.658	-250
20314.354	-255
20322.053	-257
20329.748	-257
20337.447	-257
20345.145	-252
20352.842	-242
20360.541	-247
20368.236	-247
20375.936	-235
20383.633	-235
20391.33	-250
20399.027	-255
20406.725	-245
20414.424	-233
20422.121	-225
20429.818	-215
20437.516	-215
20445.215	-215
20452.91	-213
20460.61	-228
20468.307	-242
20476.004	-242
20483.703	-235
20491.398	-230
20499.098	-235
20506.795	-240
20514.492	-242
20522.191	-262
20529.887	-264
20537.586	-179
20545.283	76
20552.98	318
20560.68	-24
20568.375	-745
20576.074	-809
20583.771	-387
20591.469	-301
20599.166	-326
20606.863	-201
20614.562	-166
20622.26	-213
20629.957	-193
20637.654	-166
20645.354	-181
20653.05	-191
20660.748	-176
20668.445	-154
20676.143	-149
20683.842	-152
20691.537	-137
20699.236	-112
20706.934	-98
20714.63	-80
20722.33	-56
20730.025	-39
20737.725	-44
20745.422	-51
20753.12	-53
20760.818	-78
20768.514	-122
20776.213	-161
20783.91	-196
20791.604	-238
20799.299	-267
20806.998	-284
20814.697	-294
20822.393	-306
20830.092	-306
20837.79	-301
20845.486	-306
20853.184	-306
20860.883	-289
20868.58	-279
20876.277	-284
20883.977	-284
20891.672	-269
20899.371	-264
20907.07	-269
20914.766	-267
20922.465	-262
20930.16	-260
20937.86	-252
20945.557	-245
20953.254	-252
20960.953	-260
20968.65	-257
20976.348	-257
20984.045	-255
20991.744	-252
20999.44	-262
21007.139	-262
21014.838	-245
21022.533	-240
21030.232	-245
21037.93	-240
21045.627	-228
21053.326	-225
21061.021	-238
21068.72	-252
21076.418	-260
21084.115	-250
21091.812	-240
21099.512	-247
21107.209	-250
21114.906	-240
21122.605	-260
21130.3	-291
21138	-250
21145.7	-26
21153.395	306
21161.094	132
21168.791	-660
21176.488	-942
21184.186	-480
21191.885	-284
21199.582	-348
21207.28	-225
21214.977	-152
21222.674	-201
21230.373	-184
21238.068	-152
21245.768	-164
21253.467	-159
21261.162	-149
21268.861	-152
21276.559	-137
21284.256	-120
21291.955	-110
21299.652	-98
21307.35	-80
21315.047	-53
21322.746	-26
21330.441	-24
21338.14	-24
21345.838	-24
21353.535	-39
21361.234	-68
21368.93	-107
21376.629	-149
21384.328	-193
21392.023	-240
21399.723	-277
21407.42	-291
21415.117	-294
21422.814	-299
21430.514	-306
21438.21	-299
21445.908	-296
21453.607	-299
21461.303	-289
21469.002	-284
21476.7	-289
21484.396	-287
21492.096	-269
21499.791	-267
21507.49	-272
21515.188	-269
21522.885	-262
21530.584	-260
21538.281	-257
21545.979	-255
21553.676	-252
21561.375	-255
21569.07	-252
21576.77	-252
21584.469	-257
21592.164	-255
21599.863	-247
21607.56	-242
21615.258	-242
21622.955	-245
21630.652	-245
21638.352	-240
21646.049	-233
21653.746	-238
21661.443	-250
21669.143	-255
21676.84	-245
21684.537	-245
21692.236	-247
21699.932	-240
21707.63	-242
21715.328	-267
21723.025	-274
21730.725	-166
21738.422	159
21746.12	395
21753.816	-115
21761.516	-893
21769.21	-807
21776.91	-341
21784.607	-316
21792.305	-323
21800.004	-174
21807.7	-161
21815.398	-206
21823.098	-174
21830.793	-154
21838.492	-166
21846.19	-161
21853.887	-152
21861.584	-152
21869.283	-144
21876.98	-130
21884.678	-110
21892.377	-95
21900.072	-73
21907.771	-49
21915.475	-34
21923.172	-29
21930.87	-26
21938.566	-29
21946.264	-51
21953.963	-88
21961.66	-127
21969.357	-171
21977.055	-220
21984.752	-257
21992.45	-277
22000.148	-294
22007.846	-306
22015.543	-309
22023.242	-306
22030.938	-301
22038.637	-289
22046.332	-289
22054.031	-294
22061.73	-289
22069.426	-282
22077.125	-277
22084.82	-279
22092.52	-277
22100.219	-267
22107.914	-260
22115.613	-257
22123.31	-250
22131.008	-250
22138.705	-245
22146.402	-235
22154.102	-238
22161.799	-247
22169.496	-250
22177.193	-247
22184.89	-245
22192.588	-245
22200.287	-245
22207.984	-240
22215.682	-235
22223.38	-235
22231.076	-233
22238.775	-230
22246.473	-230
22254.17	-233
22261.87	-240
22269.564	-245
22277.264	-240
22284.959	-238
22292.658	-240
22300.357	-245
22308.053	-260
22315.752	-272
22323.45	-240
22331.146	-73
22338.844	269
22346.541	368
22354.24	-289
22361.938	-932
22369.635	-684
22377.332	-299
22385.03	-328
22392.729	-291
22400.426	-157
22408.123	-176
22415.82	-215
22423.52	-186
22431.215	-171
22438.914	-171
22446.611	-152
22454.309	-139
22462.008	-144
22469.703	-139
22477.393	-122
22485.09	-107
22492.787	-95
22500.484	-71
22508.184	-41
22515.88	-29
22523.578	-24
22531.277	-17
22538.973	-29
22546.672	-51
22554.37	-78
22562.066	-125
22569.766	-184
22577.463	-225
22585.16	-245
22592.857	-274
22600.557	-296
22608.256	-296
22615.951	-294
22623.65	-296
22631.348	-299
22639.045	-299
22646.742	-299
22654.441	-289
22662.139	-284
22669.836	-287
22677.535	-284
22685.23	-279
22692.93	-267
22700.629	-260
22708.324	-264
22716.023	-267
22723.72	-250
22731.418	-240
22739.115	-255
22746.814	-260
22754.512	-260
22762.209	-252
22769.908	-242
22777.605	-245
22785.303	-257
22793	-260
22800.7	-252
22808.396	-250
22816.094	-245
22823.793	-238
22831.488	-230
22839.188	-228
22846.887	-225
22854.582	-225
22862.281	-235
22869.979	-250
22877.676	-252
22885.373	-242
22893.072	-242
22900.77	-245
22908.467	-242
22916.166	-255
22923.863	-277
22931.56	-247
22939.26	-76
22946.957	277
22954.654	392
22962.352	-245
22970.05	-900
22977.746	-684
22985.445	-304
22993.145	-316
23000.84	-277
23008.54	-161
23016.236	-188
23023.934	-206
23031.633	-166
23039.36	-166
23047.057	-176
23054.754	-164
23062.453	-152
23070.148	-144
23077.848	-137
23085.543	-130
23093.242	-112
23100.938	-88
23108.637	-68
23116.334	-51
23124.031	-29
23131.729	-7
23139.426	0
23147.123	-17
23154.82	-39
23162.518	-56
23170.217	-100
23177.912	-169
23185.611	-215
23193.307	-238
23201.004	-260
23208.701	-272
23216.398	-279
23224.098	-277
23231.793	-277
23239.492	-282
23247.188	-282
23254.887	-277
23262.582	-272
23270.281	-267
23277.979	-262
23285.676	-262
23293.373	-260
23301.07	-257
23308.768	-252
23316.465	-247
23324.162	-245
23331.861	-238
23339.557	-233
23347.256	-242
23354.951	-245
23362.65	-240
23370.346	-235
23378.045	-225
23385.742	-233
23393.438	-255
23401.137	-255
23408.832	-240
23416.531	-240
23424.227	-245
23431.926	-242
23439.623	-235
23447.32	-223
23455.018	-220
23462.715	-223
23470.412	-215
23478.11	-218
23485.807	-235
23493.506	-238
23501.201	-235
23508.9	-233
23516.596	-233
23524.295	-225
23531.99	-230
23539.69	-247
23547.387	-245
23555.084	-181
23562.781	44
23570.477	368
23578.176	211
23585.871	-561
23593.57	-883
23601.248	-478
23608.945	-269
23616.643	-328
23624.34	-235
23632.037	-154
23639.736	-186
23647.434	-184
23655.13	-161
23662.83	-169
23670.525	-166
23678.225	-154
23685.92	-147
23693.62	-139
23701.318	-132
23709.014	-120
23716.713	-100
23724.408	-83
23732.107	-61
23739.807	-39
23747.502	-22
23755.201	-12
23762.898	-14
23770.596	-26
23778.293	-51
23785.99	-88
23793.69	-137
23801.387	-186
23809.084	-223
23816.781	-255
23824.479	-279
23832.176	-291
23839.875	-289
23847.572	-289
23855.27	-301
23862.969	-301
23870.664	-289
23878.363	-279
23886.059	-282
23893.758	-274
23901.457	-262
23909.152	-262
23916.852	-272
23924.547	-274
23932.246	-267
23939.945	-255
23947.64	-252
23955.34	-250
23963.035	-245
23970.734	-245
23978.432	-242
23986.129	-238
23993.828	-245
24001.525	-247
24009.223	-235
24016.92	-240
24024.617	-255
24032.314	-247
24040.014	-238
24047.71	-238
24055.408	-235
24063.105	-228
24070.803	-230
24078.502	-238
24086.2	-225
24093.896	-208
24101.596	-225
24109.291	-245
24116.99	-238
24124.686	-228
24132.385	-238
24140.084	-245
24147.78	-238
24155.479	-238
24163.17	-257
24170.87	-264
24178.564	-166
24186.264	144
24193.963	409
24201.658	-24
24209.357	-824
24217.055	-826
24224.752	-372
24232.45	-321
24240.148	-326
24247.846	-174
24255.543	-169
24263.24	-215
24270.938	-164
24278.637	-142
24286.332	-174
24294.031	-169
24301.73	-147
24309.426	-147
24317.125	-137
24324.822	-122
24332.52	-115
24340.219	-93
24347.916	-63
24355.613	-49
24363.31	-36
24371.01	-22
24378.705	-12
24386.404	-12
24394.102	-29
24401.799	-56
24409.498	-95
24417.193	-152
24424.893	-203
24432.592	-235
24440.287	-260
24447.986	-284
24455.684	-296
24463.38	-296
24471.078	-289
24478.777	-289
24486.475	-296
24494.172	-289
24501.871	-277
24509.566	-279
24517.266	-279
24524.963	-267
24532.66	-262
24540.36	-262
24548.055	-260
24555.754	-257
24563.451	-252
24571.148	-247
24578.848	-247
24586.545	-242
24594.242	-240
24601.94	-238
24609.639	-233
24617.334	-233
24625.033	-242
24632.732	-252
24640.428	-247
24648.127	-242
24655.824	-250
24663.521	-247
24671.219	-238
24678.916	-235
24686.615	-233
24694.312	-220
24702.01	-208
24709.707	-208
24717.406	-228
24725.113	-242
24732.81	-235
24740.508	-225
24748.207	-230
24755.904	-235
24763.602	-225
24771.299	-228
24778.996	-252
24786.693	-257
24794.39	-161
24802.09	132
24809.787	426
24817.484	51
24825.182	-785
24832.879	-878
24840.576	-399
24848.275	-296
24855.973	-323
24863.67	-179
24871.367	-142
24879.064	-191
24886.762	-171
24894.459	-149
24902.158	-159
24909.855	-159
24917.553	-152
24925.25	-142
24932.947	-130
24940.646	-120
24948.344	-112
24956.041	-103
24963.738	-76
24971.436	-44
24979.133	-22
24986.83	-14
24994.53	-12
25002.227	-14
25009.924	-29
25017.621	-58
25025.318	-105
25033.016	-159
25040.713	-198
25048.412	-235
25056.11	-267
25063.807	-279
25071.504	-287
25079.201	-296
25086.9	-299
25094.596	-289
25102.295	-284
25109.992	-291
25117.69	-291
25125.387	-287
25133.084	-282
25140.783	-272
25148.479	-264
25156.178	-269
25163.875	-262
25171.572	-240
25179.271	-240
25186.967	-257
25194.666	-260
25202.363	-245
25210.06	-245
25217.758	-252
25225.455	-247
25233.154	-238
25240.85	-242
25248.549	-242
25256.246	-240
25263.943	-250
25271.64	-255
25279.338	-242
25287.047	-228
25294.744	-220
25302.441	-220
25310.139	-225
25317.836	-223
25325.533	-220
25333.232	-233
25340.928	-238
25348.627	-230
25356.322	-230
25364.021	-233
25371.717	-228
25379.416	-223
25387.113	-235
25394.81	-250
25402.508	-230
25410.205	-88
25417.902	255
25425.6	422
25433.297	-174
25440.996	-895
25448.691	-736
25456.39	-314
25464.086	-314
25471.785	-294
25479.48	-154
25487.18	-159
25494.877	-203
25502.574	-176
25510.271	-161
25517.969	-164
25525.666	-149
25533.363	-142
25541.06	-139
25548.76	-127
25556.457	-120
25564.154	-107
25571.852	-78
25579.549	-56
25587.248	-49
25594.943	-24
25602.643	0
25610.338	-2
25618.037	-19
25625.732	-36
25633.432	-63
25641.129	-103
25648.826	-149
25656.523	-198
25664.22	-235
25671.918	-260
25679.615	-274
25687.312	-279
25695.012	-287
25702.707	-294
25710.406	-291
25718.102	-284
25725.8	-282
25733.496	-277
25741.195	-279
25748.893	-282
25756.59	-262
25764.287	-247
25771.984	-257
25779.682	-257
25787.379	-252
25795.076	-255
25802.775	-247
25810.47	-235
25818.17	-242
25825.865	-240
25833.564	-230
25841.26	-235
25848.94	-240
25856.637	-233
25864.334	-233
25872.031	-238
25879.73	-245
25887.426	-240
25895.125	-223
25902.824	-225
25910.52	-238
25918.219	-230
25925.916	-215
25933.613	-213
25941.31	-208
25949.01	-203
25956.707	-213
25964.404	-230
25972.104	-233
25979.799	-228
25987.498	-218
25995.197	-220
26002.893	-233
26010.592	-233
26018.287	-238
26025.986	-242
26033.684	-179
26041.38	66
26049.08	392
26056.777	201
26064.475	-576
26072.172	-873
26079.871	-476
26087.566	-284
26095.266	-323
26102.965	-211
26110.66	-147
26118.36	-203
26126.057	-196
26133.754	-159
26141.453	-164
26149.148	-171
26156.848	-161
26164.545	-152
26172.242	-139
26179.94	-127
26187.639	-120
26195.336	-107
26203.033	-85
26210.732	-61
26218.428	-44
26226.127	-31
26233.826	-12
26241.521	-9
26249.22	-29
26256.918	-51
26264.615	-80
26272.312	-127
26280.012	-171
26287.709	-215
26295.406	-260
26303.104	-284
26310.8	-289
26318.5	-299
26326.195	-311
26333.895	-299
26341.594	-284
26349.29	-289
26356.988	-294
26364.686	-279
26372.383	-272
26380.082	-272
26387.78	-269
26395.477	-267
26403.174	-264
26410.873	-260
26418.568	-257
26426.268	-260
26433.967	-255
26441.662	-252
26449.361	-250
26457.057	-247
26464.756	-247
26472.455	-247
26480.15	-247
26487.85	-245
26495.547	-250
26503.244	-260
26510.941	-255
26518.64	-240
26526.338	-230
26534.035	-228
26541.734	-225
26549.43	-225
26557.129	-218
26564.826	-215
26572.523	-223
26580.223	-230
26587.918	-230
26595.617	-230
26603.314	-230
26611.012	-230
26618.71	-228
26626.408	-230
26634.105	-240
26641.803	-255
26649.502	-250
26657.197	-107
26664.896	245
26672.596	368
26680.291	-269
26687.99	-910
26695.688	-674
26703.385	-301
26711.084	-331
26718.78	-282
26726.479	-144
26734.176	-161
26741.873	-198
26749.57	-174
26757.27	-164
26764.967	-161
26772.664	-152
26780.363	-149
26788.059	-144
26795.758	-130
26803.455	-110
26811.152	-98
26818.852	-88
26826.549	-66
26834.246	-44
26841.943	-26
26849.643	-9
26857.34	-2
26865.037	-17
26872.734	-34
26880.432	-58
26888.13	-107
26895.826	-169
26903.525	-218
26911.225	-247
26918.92	-262
26926.62	-277
26934.316	-289
26942.014	-294
26949.71	-296
26957.41	-294
26965.107	-291
26972.805	-289
26980.504	-287
26988.2	-289
26995.898	-279
27003.598	-260
27011.293	-257
27018.992	-257
27026.688	-242
27034.387	-233
27042.084	-238
27049.781	-242
27057.48	-238
27065.178	-235
27072.875	-235
27080.572	-230
27088.271	-228
27095.967	-230
27103.666	-233
27111.365	-235
27119.06	-242
27126.76	-230
27134.457	-211
27142.154	-215
27149.854	-223
27157.549	-215
27165.248	-208
27172.945	-206
27180.643	-213
27188.34	-228
27196.04	-230
27203.736	-213
27211.434	-211
27219.133	-225
27226.828	-228
27234.527	-220
27242.227	-230
27249.922	-250
27257.621	-220
27265.318	-36
27273.016	316
27280.713	365
27288.412	-321
27296.11	-902
27303.807	-625
27311.504	-277
27319.201	-311
27326.9	-260
27334.596	-142
27342.295	-174
27349.994	-201
27357.69	-159
27365.389	-154
27373.086	-176
27380.783	-157
27388.482	-127
27396.18	-132
27403.877	-144
27411.574	-125
27419.273	-93
27426.969	-90
27434.668	-83
27442.365	-39
27450.062	-12
27457.762	-14
27465.457	-14
27473.156	-24
27480.855	-53
27488.55	-88
27496.25	-134
27503.947	-171
27511.645	-201
27519.342	-233
27527.041	-257
27534.754	-269
27542.45	-282
27550.148	-279
27557.846	-269
27565.543	-272
27573.24	-279
27580.938	-274
27588.635	-260
27596.334	-252
27604.031	-260
27611.729	-255
27619.426	-240
27627.123	-238
27634.82	-247
27642.518	-242
27650.217	-230
27657.912	-230
27665.611	-233
27673.307	-230
27681.006	-235
27688.703	-235
27696.4	-230
27704.1	-233
27711.795	-238
27719.494	-235
27727.19	-228
27734.889	-228
27742.584	-230
27750.283	-230
27757.98	-220
27765.678	-213
27773.377	-206
27781.072	-193
27788.771	-211
27796.467	-240
27804.166	-230
27811.863	-223
27819.56	-233
27827.258	-228
27834.955	-225
27842.652	-235
27850.352	-245
27858.049	-255
27865.746	-247
27873.443	-105
27881.14	240
27888.838	353
27896.535	-274
27904.234	-885
27911.93	-647
27919.629	-279
27927.324	-296
27935.023	-264
27942.72	-154
27950.418	-164
27958.117	-191
27965.812	-166
27973.512	-152
27981.207	-144
27988.906	-137
27996.602	-132
28004.3	-120
28011.998	-115
28019.695	-110
28027.395	-93
28035.09	-76
28042.79	-68
28050.484	-49
28058.184	-14
28065.88	-9
28073.578	-19
28081.275	-14
28088.973	-22
28096.672	-63
28104.367	-112
28112.066	-157
28119.764	-186
28127.46	-208
28135.158	-260
28142.855	-291
28150.553	-277
28158.252	-269
28165.947	-277
28173.646	-272
28181.344	-260
28189.041	-260
28196.738	-255
28204.436	-242
28212.135	-245
28219.83	-260
28227.53	-252
28235.225	-240
28242.924	-250
28250.62	-252
28258.318	-230
28266.018	-230
28273.713	-260
28281.412	-252
28289.107	-218
28296.807	-218
28304.502	-247
28312.201	-257
28319.898	-255
28327.596	-260
28335.293	-267
28342.99	-269
28350.69	-267
28358.385	-257
28366.084	-245
28373.781	-238
28381.479	-250
28389.176	-250
28396.873	-240
28404.57	-245
28412.268	-242
28419.965	-242
28427.664	-264
28435.361	-264
28443.059	-255
28450.756	-269
28458.453	-279
28466.152	-289
28473.848	-294
28481.547	-196
28489.242	112
28496.941	348
28504.637	-88
28512.336	-812
28520.035	-799
28527.73	-392
28535.43	-333
28543.125	-328
28550.824	-213
28558.52	-218
28566.219	-255
28573.916	-220
28581.613	-206
28589.31	-218
28597.008	-208
28604.707	-203
28612.402	-206
28620.102	-191
28627.799	-169
28635.496	-159
28643.193	-152
28650.89	-132
28658.574	-110
28666.271	-95
28673.969	-78
28681.666	-76
28689.365	-100
28697.06	-125
28704.76	-130
28712.459	-147
28720.154	-201
28727.854	-260
28735.55	-284
28743.248	-287
28750.947	-299
28758.645	-328
28766.342	-348
28774.04	-341
28781.736	-323
28789.434	-318
28797.133	-316
28804.83	-311
28812.527	-314
28820.227	-306
28827.922	-299
28835.621	-294
28843.318	-282
28851.016	-277
28858.715	-279
28866.412	-287
28874.11	-291
28881.807	-272
28889.506	-262
28897.203	-282
28904.9	-296
28912.598	-284
28920.295	-269
28927.994	-269
28935.69	-264
28943.389	-257
28951.088	-260
28958.783	-245
28966.482	-233
28974.18	-240
28981.877	-233
28989.574	-228
28997.273	-250
29004.97	-260
29012.668	-262
29020.367	-274
29028.062	-257
29035.762	-242
29043.46	-260
29051.156	-272
29058.855	-296
29066.55	-314
29074.25	-193
29081.947	120
29089.645	272
29097.344	-206
29105.041	-807
29112.738	-701
29120.436	-363
29128.135	-345
29135.83	-321
29143.53	-218
29151.229	-228
29158.924	-262
29166.623	-225
29174.32	-203
29182.018	-208
29189.717	-208
29197.412	-211
29205.111	-211
29212.809	-193
29220.506	-181
29228.203	-179
29235.902	-171
29243.6	-149
29251.297	-125
29258.996	-112
29266.691	-103
29274.39	-103
29282.09	-120
29289.785	-132
29297.484	-144
29305.182	-186
29312.879	-233
29320.576	-262
29328.275	-289
29335.973	-314
29343.67	-331
29351.367	-343
29359.064	-333
29366.764	-328
29374.459	-341
29382.158	-336
29389.857	-321
29397.553	-323
29405.252	-328
29412.95	-311
29420.646	-301
29428.346	-306
29436.043	-291
29443.74	-282
29451.438	-294
29459.137	-299
29466.832	-287
29474.531	-282
29482.229	-294
29489.926	-289
29497.625	-267
29505.32	-264
29513.02	-284
29520.719	-289
29528.414	-277
29536.113	-264
29543.81	-252
29551.508	-238
29559.205	-240
29566.904	-247
29574.602	-238
29582.299	-235
29589.998	-247
29597.693	-255
29605.393	-257
29613.09	-252
29620.787	-250
29628.486	-252
29636.182	-250
29643.88	-262
29651.578	-287
29659.275	-255
29666.975	-53
29674.672	242
29682.37	132
29690.066	-500
29697.766	-775
29705.46	-444
29713.16	-257
29720.86	-284
29728.555	-208
29736.254	-152
29743.951	-164
29751.648	-149
29759.348	-132
29767.043	-137
29774.742	-132
29782.434	-120
29790.133	-117
29797.83	-107
29805.527	-90
29813.225	-83
29820.924	-71
29828.621	-56
29836.318	-41
29844.018	-29
29851.713	-12
29859.412	2
29867.111	-12
29874.809	-34
29882.506	-36
29890.203	-56
29897.902	-103
29905.598	-134
29913.297	-164
29920.996	-198
29928.691	-215
29936.39	-225
29944.088	-235
29951.785	-233
29959.482	-233
29967.182	-235
29974.879	-220
29982.576	-220
29990.275	-230
29997.97	-218
30005.67	-220
30013.37	-235
30021.066	-215
30028.764	-198
30036.46	-208
30044.16	-213
30051.855	-208
30059.555	-208
30067.254	-201
30074.95	-201
30082.648	-215
30090.346	-215
30098.043	-203
30105.742	-206
30113.44	-201
30121.137	-181
30128.834	-174
30136.533	-186
30144.229	-186
30151.928	-181
30159.627	-193
30167.322	-218
30175.021	-223
30182.719	-218
30190.418	-225
30198.115	-240
30205.812	-250
30213.512	-255
30221.207	-264
30228.906	-277
30236.604	-247
30244.3	-68
30252	213
30259.697	127
30267.395	-471
30275.092	-753
30282.791	-439
30290.486	-245
30298.186	-262
30305.885	-174
30313.58	-105
30321.28	-127
30328.977	-115
30336.674	-88
30344.383	-83
30352.08	-78
30359.777	-73
30367.477	-68
30375.174	-53
30382.871	-44
30390.568	-34
30398.266	-14
30405.963	7
30413.662	24
30421.36	39
30429.057	46
30436.754	46
30444.451	41
30452.15	29
30459.846	2
30467.545	-29
30475.244	-66
30482.94	-115
30490.639	-154
30498.334	-174
30506.033	-186
30513.732	-191
30521.428	-198
30529.127	-223
30536.822	-242
30544.521	-233
30552.219	-218
30559.916	-208
30567.615	-191
30575.312	-184
30583.01	-186
30590.707	-181
30598.404	-174
30606.102	-176
30613.8	-179
30621.498	-169
30629.195	-176
30636.893	-191
30644.59	-184
30652.29	-179
30659.986	-184
30667.684	-184
30675.383	-179
30683.078	-176
30690.777	-174
30698.473	-169
30706.172	-164
30713.871	-161
30721.566	-159
30729.266	-161
30736.96	-174
30744.66	-181
30752.36	-171
30760.055	-166
30767.754	-179
30775.451	-176
30783.148	-169
30790.846	-188
30798.543	-225
30806.242	-240
30813.94	-181
30821.637	46
30829.334	250
30837.031	-100
30844.729	-745
30852.428	-772
30860.125	-402
30867.822	-333
30875.52	-338
30883.217	-230
30890.916	-223
30898.611	-269
30906.307	-260
30914.004	-252
30921.701	-260
30929.398	-247
30937.096	-235
30944.795	-240
30952.49	-230
30960.19	-208
30967.889	-203
30975.584	-196
30983.283	-169
30990.98	-149
30998.678	-142
31006.375	-130
31014.074	-137
31021.771	-164
31029.469	-176
31037.168	-179
31044.863	-206
31052.562	-245
31060.26	-269
31067.957	-294
31075.656	-336
31083.352	-363
31091.05	-363
31098.748	-358
31106.445	-363
31114.145	-360
31121.842	-350
31129.54	-333
31137.236	-316
31144.936	-314
31152.63	-326
31160.33	-323
31168.03	-301
31175.725	-299
31183.424	-318
31191.121	-318
31198.818	-301
31206.518	-296
31214.213	-306
31221.912	-301
31229.61	-289
31237.307	-294
31245.004	-294
31252.703	-282
31260.4	-279
31268.098	-272
31275.797	-267
31283.492	-279
31291.191	-282
31298.89	-282
31306.586	-299
31314.285	-296
31321.982	-277
31329.68	-277
31337.377	-282
31345.074	-287
31352.773	-314
31360.47	-338
31368.168	-260
31375.865	14
31383.564	238
31391.26	-174
31398.959	-885
31406.658	-846
31414.354	-395
31422.053	-341
31429.75	-345
31437.447	-193
31445.146	-171
31452.844	-218
31460.541	-196
31468.238	-181
31475.938	-193
31483.633	-186
31491.332	-176
31499.03	-171
31506.727	-152
31514.426	-132
31522.121	-125
31529.82	-120
31537.52	-95
31545.215	-51
31552.914	-34
31560.611	-36
31568.309	-31
31576.006	-34
31583.705	-56
31591.402	-85
31599.1	-115
31606.799	-152
31614.494	-186
31622.193	-225
31629.889	-267
31637.588	-277
31645.287	-255
31652.982	-255
31660.682	-272
31668.379	-260
31676.076	-242
31683.775	-242
31691.473	-245
31699.17	-240
31706.867	-240
31714.566	-238
31722.262	-228
31729.96	-225
31737.66	-228
31745.355	-220
31753.055	-218
31760.752	-218
31768.45	-213
31776.146	-206
31783.844	-198
31791.543	-193
31799.24	-188
31806.938	-191
31814.635	-196
31822.334	-184
31830.031	-166
31837.729	-171
31845.428	-179
31853.123	-174
31860.822	-176
31868.52	-186
31876.217	-176
31883.916	-157
31891.613	-164
31899.31	-193
31907.008	-225
31914.705	-186
31922.404	53
31930.102	353
31937.799	95
31945.496	-660
31953.195	-821
31960.89	-363
31968.59	-206
31976.29	-247
31983.984	-122
31991.684	-73
31999.38	-127
32007.078	-110
32014.775	-80
32022.475	-95
32030.178	-98
32037.873	-83
32045.572	-80
32053.271	-80
32060.967	-71
32068.666	-58
32076.361	-44
32084.06	-29
32091.758	-12
32099.455	9
32107.154	22
32114.85	12
32122.549	-4
32130.246	-26
32137.943	-51
32145.64	-85
32153.34	-125
32161.037	-154
32168.734	-188
32176.432	-213
32184.129	-223
32191.828	-230
32199.523	-245
32207.223	-250
32214.92	-240
32222.617	-233
32230.316	-228
32238.012	-220
32245.71	-220
32253.41	-223
32261.105	-213
32268.805	-196
32276.5	-196
32284.2	-206
32291.896	-203
32299.594	-206
32307.293	-208
32314.988	-208
32322.688	-206
32330.385	-201
32338.082	-203
32345.78	-208
32353.477	-191
32361.176	-176
32368.873	-186
32376.57	-198
32384.268	-198
32391.967	-206
32399.664	-215
32407.361	-220
32415.059	-228
32422.756	-240
32430.455	-240
32438.15	-245
32445.85	-274
32453.547	-301
32461.244	-245
32468.943	7
32476.639	294
32484.338	9
32492.035	-709
32499.732	-812
32507.432	-390
32515.127	-282
32522.826	-318
32530.523	-203
32538.22	-174
32545.92	-225
32553.615	-198
32561.314	-164
32569.012	-176
32576.709	-174
32584.406	-157
32592.096	-154
32599.791	-149
32607.49	-137
32615.19	-127
32622.885	-112
32630.584	-76
32638.281	-46
32645.979	-51
32653.676	-56
32661.375	-44
32669.072	-49
32676.77	-71
32684.469	-100
32692.166	-147
32699.863	-201
32707.56	-245
32715.26	-272
32722.957	-294
32730.654	-321
32738.354	-323
32746.049	-314
32753.748	-304
32761.447	-269
32769.145	-235
32776.84	-220
32784.54	-208
32792.234	-188
32799.934	-171
32807.633	-166
32815.33	-169
32823.027	-159
32830.727	-139
32838.42	-127
32846.12	-132
32853.82	-139
32861.52	-137
32869.215	-134
32876.914	-134
32884.61	-125
32892.31	-107
32900.008	-103
32907.703	-110
32915.402	-117
32923.098	-112
32930.797	-110
32938.492	-122
32946.19	-134
32953.89	-142
32961.586	-142
32969.285	-144
32976.984	-152
32984.68	-154
32992.38	-157
33000.08	-176
33007.777	-193
33015.473	-105
33023.17	191
33030.867	404
33038.566	-29
33046.266	-684
33053.96	-620
33061.66	-245
33069.355	-208
33077.055	-198
33084.75	-80
33092.45	-98
33100.15	-147
33107.844	-105
33115.543	-93
33123.242	-120
33130.938	-100
33138.637	-71
33146.336	-80
33154.062	-98
33161.76	-76
33169.457	-44
33177.156	-36
33184.85	-19
33192.55	2
33200.246	7
33207.945	9
33215.64	17
33223.34	17
33231.035	4
33238.734	-24
33246.43	-58
33254.13	-88
33261.824	-122
33269.523	-159
33277.223	-191
33284.918	-211
33292.617	-218
33300.312	-220
33308.01	-215
33315.707	-218
33323.406	-228
33331.1	-220
33338.8	-206
33346.496	-213
33354.195	-225
33361.89	-213
33369.59	-198
33377.285	-196
33384.984	-191
33392.68	-186
33400.38	-184
33408.074	-181
33415.773	-184
33423.47	-186
33431.168	-184
33438.867	-176
33446.562	-171
33454.26	-171
33461.957	-166
33469.656	-161
33477.35	-161
33485.05	-166
33492.746	-174
33500.445	-186
33508.14	-184
33515.84	-169
33523.535	-186
33531.234	-211
33538.93	-208
33546.63	-213
33554.324	-211
33562.023	-206
33569.72	-223
33577.418	-130
33585.113	191
33592.812	323
33600.51	-238
33608.207	-804
33615.906	-588
33623.6	-252
33631.3	-279
33638.996	-233
33646.695	-120
33654.39	-152
33662.09	-166
33669.785	-122
33677.484	-122
33685.18	-134
33692.88	-132
33700.574	-139
33708.273	-132
33715.938	-110
33723.637	-100
33731.336	-93
33739.03	-68
33746.73	-39
33754.43	-36
33762.13	-34
33769.824	-17
33777.523	-17
33785.223	-29
33792.918	-49
33800.617	-80
33808.312	-117
33816.01	-147
33823.71	-179
33831.406	-218
33839.105	-240
33846.8	-250
33854.5	-260
33862.195	-260
33869.895	-252
33877.594	-255
33885.29	-257
33892.99	-250
33900.688	-250
33908.383	-267
33916.082	-264
33923.78	-233
33931.48	-220
33939.176	-238
33946.875	-240
33954.574	-220
33962.27	-208
33969.97	-220
33977.664	-230
33985.363	-215
33993.06	-211
34000.758	-220
34008.457	-225
34016.152	-223
34023.85	-211
34031.547	-196
34039.246	-198
34046.945	-191
34054.64	-179
34062.34	-186
34070.04	-201
34077.74	-203
34085.434	-203
34093.133	-218
34100.832	-230
34108.527	-230
34116.227	-215
34123.92	-211
34131.62	-225
34139.316	-228
34147.016	-225
34154.715	-218
34162.41	-83
34170.11	225
34177.805	240
34185.504	-353
34193.203	-760
34200.9	-493
34208.598	-267
34216.297	-306
34223.992	-230
34231.69	-152
34239.39	-188
34247.09	-181
34254.785	-157
34262.484	-171
34270.18	-164
34277.895	-144
34285.59	-147
34293.29	-137
34300.984	-115
34308.684	-110
34316.383	-110
34324.08	-83
34331.777	-58
34339.473	-51
34347.17	-44
34354.867	-41
34362.57	-49
34370.266	-46
34377.96	-46
34385.656	-78
34393.36	-120
34401.055	-149
34408.75	-184
34416.453	-228
34424.15	-245
34431.844	-235
34439.54	-247
34447.242	-260
34454.938	-245
34462.633	-238
34470.336	-252
34478.03	-255
34485.727	-245
34493.42	-238
34501.125	-223
34508.82	-215
34516.516	-228
34524.22	-215
34531.914	-193
34539.61	-203
34547.305	-206
34555.008	-193
34562.703	-198
34570.4	-203
34578.1	-196
34585.797	-186
34593.492	-203
34601.188	-223
34608.89	-213
34616.586	-196
34624.28	-196
34631.984	-188
34639.68	-181
34647.375	-188
34655.08	-181
34662.773	-174
34670.47	-188
34678.164	-203
34685.867	-208
34693.562	-203
34701.258	-198
34708.96	-196
34716.656	-191
34724.35	-196
34732.047	-220
34739.75	-252
34747.445	-215
34755.14	-2
34762.844	336
34770.54	245
34778.234	-471
34785.93	-821
34793.633	-451
34801.33	-252
34809.023	-304
34816.727	-196
34824.42	-122
34832.117	-166
34839.805	-152
34847.504	-120
34855.203	-142
34862.9	-147
34870.594	-125
34878.297	-115
34885.992	-117
34893.688	-112
34901.39	-95
34909.086	-80
34916.78	-61
34924.484	-39
34932.18	-26
34939.875	-17
34947.574	-7
34955.273	-12
34962.97	-22
34970.668	-39
34978.367	-80
34986.062	-132
34993.76	-169
35001.457	-186
35009.156	-220
35016.855	-257
35024.55	-262
35032.25	-264
35039.945	-269
35047.645	-260
35055.34	-262
35063.04	-269
35070.74	-245
35078.434	-220
35086.133	-230
35093.832	-252
35101.527	-238
35109.223	-220
35116.926	-235
35124.62	-238
35132.316	-228
35140.02	-223
35147.715	-220
35155.41	-220
35163.113	-213
35170.81	-203
35178.504	-208
35186.203	-211
35193.902	-198
35201.598	-191
35209.297	-196
35216.996	-193
35224.69	-181
35232.39	-186
35240.086	-211
35247.785	-225
35255.484	-220
35263.18	-215
35270.88	-215
35278.58	-218
35286.273	-218
35293.97	-228
35301.67	-252
35309.367	-277
35317.062	-193
35324.76	120
35332.46	350
35340.156	-76
35347.85	-723
35355.555	-662
35363.25	-291
35370.945	-267
35378.65	-272
35386.344	-157
35394.04	-144
35401.77	-184
35409.465	-171
35417.164	-164
35424.863	-179
35432.56	-181
35440.254	-166
35447.953	-144
35455.652	-134
35463.348	-130
35471.043	-112
35478.742	-88
35486.44	-83
35494.137	-78
35501.836	-51
35509.53	-31
35517.227	-31
35524.926	-39
35532.625	-51
35540.32	-68
35548.016	-105
35555.72	-152
35563.414	-193
35571.11	-223
35578.805	-247
35586.504	-255
35594.203	-250
35601.9	-262
35609.598	-272
35617.293	-262
35624.992	-252
35632.688	-252
35640.387	-238
35648.082	-228
35655.777	-255
35663.48	-267
35671.176	-247
35678.87	-238
35686.566	-240
35694.27	-240
35701.965	-233
35709.66	-223
35717.36	-220
35725.055	-228
35732.754	-225
35740.45	-215
35748.15	-225
35755.844	-247
35763.543	-250
35771.242	-233
35778.938	-225
35786.633	-220
35794.33	-196
35802.03	-188
35809.727	-193
35817.42	-181
35825.12	-188
35832.82	-230
35840.516	-242
35848.21	-230
35855.91	-230
35863.605	-223
35871.305	-215
35879.004	-211
35886.7	-206
35894.395	-247
35902.094	-289
35909.793	-179
35917.49	127
35925.184	331
35932.883	-44
35940.582	-603
35948.277	-552
35955.973	-260
35963.64	-267
35971.34	-282
35979.04	-171
35986.734	-137
35994.43	-176
36002.133	-188
36009.83	-174
36017.523	-169
36025.227	-171
36032.92	-159
36040.617	-132
36048.32	-112
36056.016	-125
36063.71	-134
36071.41	-103
36079.11	-66
36086.805	-63
36094.5	-58
36102.203	-41
36109.9	-36
36117.594	-39
36125.293	-53
36132.992	-85
36140.688	-120
36148.387	-149
36156.086	-184
36163.78	-230
36171.48	-267
36179.176	-269
36186.875	-257
36194.574	-257
36202.27	-289
36209.97	-304
36217.668	-277
36225.363	-260
36233.06	-267
36240.76	-274
36248.457	-277
36256.152	-272
36263.855	-262
36271.55	-238
36279.246	-196
36286.95	-201
36294.645	-235
36302.34	-235
36310.04	-220
36317.74	-218
36325.434	-213
36333.133	-220
36340.832	-235
36348.527	-203
36356.227	-188
36363.92	-245
36371.62	-272
36379.316	-211
36387.016	-174
36394.715	-218
36402.41	-252
36410.11	-218
36417.805	-188
36425.504	-223
36433.203	-252
36440.9	-250
36448.598	-242
36456.297	-206
36463.992	-164
36471.688	-176
36479.39	-240
36487.086	-282
36494.78	-218
36502.484	24
36510.18	287
36517.875	24
36525.58	-640
36533.273	-731
36540.97	-345
36548.668	-272
36556.367	-314
36564.062	-181
36571.76	-120
36579.46	-159
36587.156	-154
36594.855	-142
36602.55	-154
36610.25	-159
36617.95	-159
36625.645	-147
36633.344	-127
36641.043	-120
36648.74	-95
36656.434	-71
36664.133	-68
36671.832	-66
36679.527	-53
36687.227	-39
36694.926	-19
36702.62	-26
36710.316	-49
36718.02	-61
36725.715	-103
36733.41	-159
36741.113	-171
36748.81	-211
36756.504	-282
36764.203	-267
36771.902	-233
36779.598	-279
36787.297	-304
36794.996	-267
36802.69	-262
36810.39	-287
36818.09	-272
36825.785	-272
36833.484	-291
36841.18	-260
36848.88	-228
36856.58	-255
36864.273	-282
36871.973	-260
36879.67	-223
36887.367	-225
36895.062	-267
36902.766	-264
36910.46	-228
36918.156	-233
36925.86	-245
36933.555	-250
36941.25	-257
36948.945	-220
36956.65	-193
36964.344	-230
36972.04	-242
36979.742	-220
36987.438	-247
36995.133	-257
37002.832	-215
37010.53	-211
37018.227	-247
37025.926	-274
37033.625	-262
37041.32	-233
37049.02	-242
37056.72	-264
37064.414	-245
37072.113	-223
37079.81	-127
37087.527	159
37095.223	306
37102.92	-235
37110.62	-907
37118.316	-758
37126.016	-345
37133.715	-358
37141.41	-341
37149.105	-127
37156.81	-73
37164.504	-169
37172.2	-164
37179.895	-76
37187.598	-83
37195.293	-142
37202.99	-127
37210.684	-98
37218.387	-147
37226.082	-174
37233.777	-76
37241.477	9
37249.176	-39
37256.87	-85
37264.566	-14
37272.266	66
37279.965	17
37287.66	-46
37295.36	-4
37303.055	-39
37310.754	-174
37318.453	-161
37326.15	-83
37333.844	-181
37341.543	-289
37349.242	-230
37356.938	-213
37364.633	-318
37372.336	-299
37380.03	-203
37387.727	-269
37395.42	-341
37403.125	-233
37410.82	-176
37418.516	-262
37426.21	-279
37433.914	-203
37441.61	-225
37449.305	-304
37457.008	-235
37464.703	-171
37472.4	-287
37480.098	-306
37487.797	-166
37495.492	-161
37503.188	-267
37510.887	-255
37518.586	-215
37526.28	-245
37533.98	-235
37541.676	-211
37549.375	-235
37557.07	-257
37564.77	-235
37572.465	-211
37580.164	-260
37587.863	-294
37595.56	-250
37603.254	-208
37610.953	-208
37618.652	-267
37626.348	-309
37634.043	-235
37641.746	-107
37649.418	127
37657.113	341
37664.81	-41
37672.508	-755
37680.207	-817
37687.906	-478
37695.6	-370
37703.3	-267
37711	-132
37718.695	-193
37726.39	-291
37734.094	-198
37741.79	-53
37749.484	-107
37757.188	-206
37764.883	-159
37772.58	-110
37780.277	-144
37787.977	-154
37795.67	-117
37803.37	-100
37811.07	-83
37818.766	-49
37826.465	-49
37834.164	-78
37841.86	-68
37849.56	-19
37857.254	-49
37864.953	-169
37872.652	-206
37880.348	-137
37888.047	-179
37895.746	-284
37903.44	-262
37911.137	-235
37918.84	-291
37926.535	-296
37934.23	-213
37941.934	-230
37949.63	-372
37957.324	-387
37965.023	-267
37972.723	-218
37980.418	-238
37988.117	-240
37995.816	-269
38003.516	-225
38011.21	-107
38018.906	-159
38026.61	-250
38034.305	-161
38042	-184
38049.703	-341
38057.4	-218
38065.094	-95
38072.797	-316
38080.492	-267
38088.188	53
38095.887	-112
38103.586	-385
38111.28	-161
38118.98	-12
38126.68	-260
38134.375	-345
38142.074	-171
38149.77	-193
38157.47	-326
38165.168	-215
38172.863	-66
38180.562	-191
38188.26	-331
38195.957	-105
38203.652	314
38211.375	245
38219.07	-478
38226.77	-802
38234.465	-363
38242.164	-267
38249.86	-566
38257.56	-345
38265.258	22
38272.953	-184
38280.652	-412
38288.348	-203
38296.047	-49
38303.742	-152
38311.44	-289
38319.137	-245
38326.836	-51
38334.535	-147
38342.23	-397
38349.93	-125
38357.625	215
38365.324	-44
38373.02	-326
38380.72	-105
38388.418	117
38396.113	-112
38403.81	-230
38411.508	51
38419.207	-44
38426.902	-375
38434.6	-196
38442.3	12
38449.996	-235
38457.69	-397
38465.395	-260
38473.09	-279
38480.785	-326
38488.48	-201
38496.184	-341
38503.88	-476
38511.574	-161
38519.277	-90
38526.973	-485
38534.668	-449
38542.363	-49
38550.066	-152
38557.76	-444
38565.457	-309
38573.156	-68
38580.855	-120
38588.55	-345
38596.246	-387
38603.95	-191
38611.645	-112
38619.34	-240
38627.04	-306
38634.74	-355
38642.434	-326
38650.13	-56
38657.83	-71
38665.527	-463
38673.223	-409
38680.92	17
38688.62	-66
38696.316	-476
38704.01	-439
38711.71	-130
38719.41	-228
38727.105	-507
38734.805	-181
38742.5	473
38750.2	387
38757.895	-515
38765.594	-961
38773.277	-505
38780.973	-260
38788.67	-417
38796.37	-311
38804.066	-122
38811.766	-147
38819.465	-196
38827.16	-159
38834.86	-125
38842.555	-125
38850.254	-132
38857.95	-142
38865.65	-125
38873.348	-66
38881.043	-41
38888.742	-63
38896.438	-41
38904.137	12
38911.836	34
38919.53	46
38927.23	41
38934.93	19
38942.625	22
38950.32	29
38958.023	-12
38965.72	-78
38973.414	-127
38981.117	-176
38988.812	-215
38996.508	-228
39004.21	-245
39011.906	-274
39019.6	-269
39027.3	-255
39035	-269
39042.695	-269
39050.395	-242
39058.094	-240
39065.79	-240
39073.49	-220
39081.184	-228
39088.883	-247
39096.582	-240
39104.277	-230
39111.977	-225
39119.67	-218
39127.37	-218
39135.066	-218
39142.766	-201
39150.465	-193
39158.16	-211
39165.86	-215
39173.56	-206
39181.254	-201
39188.95	-198
39196.652	-206
39204.348	-228
39212.043	-242
39219.746	-228
39227.44	-213
39235.137	-220
39242.84	-238
39250.535	-250
39258.23	-245
39265.93	-147
39273.63	154
39281.324	397
39289.023	-56
39296.723	-817
39304.418	-775
39312.117	-341
39319.812	-321
39327.51	-316
39335.21	-159
39342.906	-161
39350.605	-196
39358.305	-152
39366	-154
39373.695	-171
39381.4	-132
39389.094	-120
39396.79	-139
39404.492	-130
39412.188	-110
39419.883	-76
39427.58	-44
39435.28	-46
39442.977	-53
39450.67	-29
39458.375	0
39466.07	-2
39473.766	-26
39481.47	-36
39489.164	-49
39496.86	-80
39504.56	-125
39512.258	-171
39519.953	-220
39527.652	-252
39535.35	-255
39543.047	-250
39550.746	-257
39558.44	-257
39566.14	-252
39573.84	-257
39581.535	-247
39589.234	-230
39596.934	-235
39604.63	-233
39612.324	-225
39620.027	-223
39627.723	-220
39635.418	-230
39643.12	-230
39650.816	-193
39658.51	-181
39666.21	-203
39673.91	-193
39681.605	-169
39689.305	-174
39697.004	-191
39704.7	-184
39712.395	-166
39720.098	-174
39727.793	-184
39735.49	-174
39743.188	-176
39750.887	-193
39758.582	-196
39766.28	-193
39773.98	-201
39781.676	-201
39789.375	-139
39797.07	120
39804.77	471
39812.47	269
39820.164	-517
39827.863	-782
39835.562	-382
39843.258	-235
39850.953	-289
39858.656	-181
39866.35	-120
39874.047	-154
39881.75	-139
39889.445	-110
39897.14	-125
39904.84	-115
39912.54	-83
39920.234	-107
39927.934	-125
39935.633	-90
39943.33	-85
39951.027	-80
39958.723	-36
39966.42	-26
39974.12	-41
39981.816	-17
39989.516	22
39997.21	9
40004.91	-36
40012.61	-63
40020.305	-85
40028.004	-137
40035.7	-181
40043.4	-198
40051.098	-223
40058.793	-245
40066.492	-240
40074.19	-247
40081.887	-269
40089.582	-257
40097.285	-240
40104.98	-250
40112.676	-269
40120.38	-257
40128.074	-235
40135.77	-247
40143.47	-255
40151.168	-233
40158.863	-230
40166.562	-235
40174.26	-230
40181.957	-220
40189.656	-206
40197.35	-203
40205.05	-211
40212.75	-208
40220.445	-201
40228.145	-213
40235.844	-230
40243.54	-235
40251.24	-235
40258.938	-235
40266.633	-235
40274.33	-240
40282.027	-250
40289.727	-260
40297.42	-272
40305.12	-262
40312.82	-176
40320.516	76
40328.21	429
40335.914	294
40343.61	-495
40351.305	-871
40359.008	-498
40366.703	-296
40374.4	-363
40382.098	-274
40389.797	-193
40397.492	-220
40405.19	-215
40412.89	-188
40420.586	-188
40428.285	-191
40435.98	-176
40443.68	-171
40451.38	-179
40459.074	-164
40466.773	-137
40474.473	-117
40482.168	-93
40489.863	-71
40497.566	-53
40505.26	-51
40512.957	-53
40520.66	-53
40528.355	-68
40536.05	-93
40543.754	-117
40551.45	-154
40559.145	-188
40566.84	-215
40574.543	-252
40582.24	-279
40589.934	-289
40597.637	-299
40605.332	-299
40613.027	-279
40620.727	-272
40628.426	-277
40636.12	-262
40643.82	-250
40651.52	-262
40659.215	-269
40666.914	-257
40674.61	-257
40682.31	-252
40690.008	-225
40697.703	-220
40705.402	-233
40713.1	-225
40720.797	-203
40728.492	-203
40736.195	-230
40743.89	-233
40751.586	-208
40759.29	-201
40766.984	-215
40774.68	-235
40782.383	-235
40790.08	-220
40797.773	-240
40805.473	-255
40813.17	-242
40820.867	-262
40828.566	-262
40836.266	-103
40843.96	267
40851.656	488
40859.355	-7
40867.055	-714
40874.75	-647
40882.45	-287
40890.15	-306
40897.844	-321
40905.543	-184
40913.24	-179
40920.938	-225
40928.637	-191
40936.332	-159
40944.03	-169
40951.73	-176
40959.426	-154
40967.12	-139
40974.824	-147
40982.52	-139
40990.215	-110
40997.918	-90
41005.613	-90
41013.31	-80
41021.023	-26
41028.723	14
41036.418	-22
41044.117	-90
41051.812	-103
41059.51	-80
41067.207	-122
41074.906	-198
41082.6	-220
41090.3	-235
41098	-272
41105.695	-284
41113.395	-284
41121.09	-294
41128.79	-287
41136.484	-289
41144.184	-311
41151.883	-296
41159.58	-255
41167.273	-252
41174.973	-272
41182.67	-269
41190.367	-264
41198.066	-272
41205.766	-267
41213.46	-238
41221.156	-215
41228.855	-215
41236.555	-215
41244.25	-198
41251.945	-186
41259.65	-188
41267.344	-191
41275.04	-188
41282.74	-193
41290.438	-211
41298.133	-223
41305.83	-220
41313.53	-213
41321.227	-206
41328.92	-191
41336.617	-196
41344.32	-225
41352.016	-184
41359.71	63
41367.414	449
41375.11	372
41382.805	-368
41390.5	-777
41398.203	-471
41405.9	-272
41413.594	-314
41421.297	-235
41428.992	-171
41436.688	-208
41444.387	-206
41452.086	-196
41459.78	-228
41467.477	-260
41475.176	-294
41482.875	-343
41490.57	-341
41498.27	-284
41505.97	-252
41513.664	-230
41521.36	-196
41529.06	-186
41536.758	-198
41544.453	-191
41552.152	-164
41559.848	-139
41567.547	-110
41575.242	-66
41582.94	-46
41590.64	-56
41598.336	-31
41606.035	49
41613.73	201
41621.43	429
41629.125	652
41636.824	826
41644.52	934
41652.22	932
41659.918	853
41667.613	780
41675.312	696
41683.008	576
41690.707	451
41698.402	314
41706.1	149
41713.8	68
41721.496	115
41729.19	166
41736.89	230
41744.59	338
41752.285	387
41759.984	399
41767.684	419
41775.38	377
41783.074	331
41790.773	353
41798.473	412
41806.168	527
41813.863	836
41821.566	1425
41829.26	2046
41836.957	2318
41844.656	2355
41852.355	2441
41860.05	2465
41867.746	2281
41875.45	2186
41883.145	2433
41890.84	2259
41898.535	1015
41906.24	-76
41913.934	2
41921.63	282
41929.332	147
41937.027	107
41944.723	171
41952.418	78
41960.12	-9
41967.816	-14
41975.51	-46
41983.21	-83
41990.91	-83
41998.605	-95
42006.3	-122
42014.004	-142
42021.7	-164
42029.395	-191
42037.094	-215
42044.793	-230
42052.49	-233
42060.188	-218
42067.883	-193
42075.582	-184
42083.277	-196
42090.977	-208
42098.676	-225
42106.37	-282
42114.07	-348
42121.766	-387
42129.465	-426
42137.16	-453
42144.902	-441
42152.598	-414
42160.297	-397
42167.996	-382
42175.69	-377
42183.39	-380
42191.086	-372
42198.78	-331
42206.477	-260
42214.176	-235
42221.87	-277
42229.57	-311
42237.27	-333
42244.965	-377
42252.66	-461
42260.355	-591
42268.055	-721
42275.75	-802
42283.445	-929
42291.15	-1062
42298.844	-971
42306.54	-765
42314.234	-645
42321.934	-510
42329.63	-365
42337.324	-333
42345.02	-483
42352.72	-821
42360.418	-1526
42368.113	-2681
42375.812	-3420
42383.508	-3278
42391.203	-3152
42398.9	-3317
42406.598	-3165
42414.293	-3079
42421.992	-3628
42429.69	-3906
42437.387	-3363
42445.082	-2907
42452.777	-2797
42460.477	-2605
42468.17	-2421
42475.867	-2338
42483.57	-2195
42491.266	-1761
42498.96	-794
42506.656	677
42514.355	2124
42522.05	2858
42529.746	3067
42537.44	3322
42545.14	3231
42552.84	2164
42560.535	1079
42568.234	1155
42575.93	780
42583.625	-1469
42591.32	-3825
42599.02	-5054
42606.715	-6050
42614.414	-7351
42622.113	-8734
42629.81	-9615
42637.504	-10045
42645.2	-10265
42652.9	-9573
42660.594	-8715
42668.29	-9093
42675.992	-9537
42683.688	-9264
42691.383	-9507
42699.08	-10364
42706.715	-11585
42714.414	-13136
42722.113	-13929
42729.81	-14032
42737.508	-14518
42745.203	-14792
42752.902	-15435
42760.6	-18892
42768.297	-20100
42775.996	-20100
42783.695	-20100
42791.39	-20100
42799.086	-20100
42806.79	-20100
42814.484	-20100
42822.18	-20100
42829.88	-20100
42837.58	-20100
42845.273	-20100
42852.97	-20100
42860.67	-20100
42868.367	-20100
42876.062	-9044
42883.766	-314
42891.46	3162
42899.156	4934
42906.86	5196
42914.555	4109
42922.25	1972
42929.95	-3525
42937.65	-11610
42945.344	-18426
42953.043	-20100
42960.742	-20100
42968.438	-12729
42976.137	-7996
42983.832	-10594
42991.53	-10246
42999.23	-6352
43006.926	-3295
43014.625	-488
43022.324	2635
43030.02	4958
43037.715	7419
43045.418	11887
43053.113	17251
43060.81	20097
43068.51	20097
43076.207	20097
43083.902	20097
43091.6	20097
43099.3	20097
43106.996	20097
43114.69	20097
43122.395	20097
43130.09	20097
43137.785	20097
43145.49	20097
43153.184	20097
43160.88	20097
43168.58	20097
43176.277	20097
43183.973	20097
43191.67	13342
43199.37	-18198
43207.066	-20100
43214.766	-5869
43222.46	-2610
43230.16	-2762
43237.86	2215
43245.555	3013
43253.254	1629
43260.953	2630
43268.56	2546
43276.258	485
43283.957	-782
43291.656	-758
43299.35	-149
43307.055	191
43314.754	-677
43322.45	-1911
43330.152	-2355
43337.85	-2934
43345.547	-3972
43353.246	-4063
43360.95	-3349
43368.645	-3265
43376.344	-3336
43384.043	-2831
43391.742	-2649
43399.44	-3199
43407.14	-4490
43414.84	-6720
43422.54	-8646
43430.234	-8835
43437.938	-8136
43445.633	-7397
43453.332	-6136
43461.035	-4234
43468.73	-2559
43476.43	-2073
43484.133	-2411
43491.83	-2235
43499.527	-1410
43507.223	-1501
43514.926	-1631
43522.625	-100
43530.32	-83
43538.023	-4043
43545.723	-6438
43553.418	-4048
43561.12	-2124
43568.82	-1550
43576.516	-284
43584.22	-731
43591.914	-3444
43599.613	-5827
43607.312	-7120
43615.01	-7817
43622.71	-7964
43630.41	-8327
43638.11	-8754
43645.81	-7858
43653.504	-5567
43661.207	-1121
43668.906	6776
43676.6	13801
43684.305	13909
43692.004	9740
43699.7	8383
43707.4	10800
43715.1	11985
43722.797	9713
43730.496	10182
43738.195	14365
43745.895	15970
43753.594	17165
43761.293	20097
43768.992	20097
43776.69	20097
43784.387	18532
43792.09	19754
43799.785	20097
43807.484	20097
43815.188	20097
43822.883	20097
43830.703	20097
43838.402	20097
43846.098	20097
43853.797	20097
43861.492	20097
43869.188	20097
43876.887	20097
43884.586	20097
43892.28	20097
43899.977	18142
43907.68	13639
43915.375	12145
43923.07	18522
43930.766	20097
43938.465	19736
43946.164	18159
43953.86	20097
43961.56	17823
43969.254	12626
43976.953	15673
43984.65	20097
43992.348	20097
44000.043	19923
44007.74	20097
44015.44	20097
44023.137	20097
44030.832	20097
44038.527	20097
44046.23	20097
44053.926	20097
44061.62	20097
44069.32	20097
44077.016	20097
44084.715	20097
44092.41	20097
44100.11	20097
44107.805	20097
44115.504	20097
44123.203	20097
44130.9	20097
44138.594	20097
44146.29	20097
44153.992	20097
44161.688	20097
44169.383	20097
44177.082	20097
44184.78	20097
44192.477	20097
44200.17	20097
44207.87	20097
44215.566	20097
44223.266	20097
44230.965	20097
44238.66	20097
44246.355	20097
44254.055	20097
44261.754	20097
44269.45	20097
44277.145	20097
44284.844	20097
44292.543	20097
44300.24	20097
44307.934	20097
44315.633	20097
44323.332	20097
44331.027	20097
44338.727	20097
44346.42	16537
44354.117	12694
44361.816	12329
44369.516	14473
44377.21	16503
44384.906	15305
44392.574	12766
44400.277	11549
44407.973	5815
44415.668	-9453
44423.367	-20100
44431.066	-20100
44438.76	-19113
44446.46	-15501
44454.16	-14115
44461.855	-16105
44469.55	-18517
44477.25	-14280
44484.95	-4541
44492.645	3282
44500.344	6931
44508.043	8033
44515.74	11080
44523.438	17511
44531.133	20097
44538.832	18438
44546.53	15636
44554.227	13043
44561.926	9326
44569.625	5282
44577.32	2178
44585.016	-3246
44592.72	-11988
44600.414	-15168
44608.11	-9527
44615.812	-4333
44623.508	-3439
44631.203	-2208
44638.906	-2
44646.6	1261
44654.297	3422
44661.996	6671
44669.695	7689
44677.39	6244
44685.09	4875
44692.79	4627
44700.484	6173
44708.184	8833
44715.88	9311
44723.58	8810
44731.277	13205
44738.973	18743
44746.67	17290
44754.367	15715
44762.066	19592
44769.76	20097
44777.46	17175
44785.16	15909
44792.855	16841
44800.555	16679
44808.254	16161
44815.95	17138
44823.645	19152
44831.348	20097
44839.043	20097
44846.74	20097
44854.44	20097
44862.137	20097
44869.832	20097
44877.53	20097
44885.23	20097
44892.926	20097
44900.625	20097
44908.324	20097
44916.02	20097
44923.72	20097
44931.418	20097
44939.113	20097
44946.812	20097
44954.516	20097
44962.22	20097
44969.914	20097
44977.61	20097
44985.312	20097
44993.008	20097
45000.703	20097
45008.4	20097
45016.1	15548
45023.797	6200
45031.492	-7542
45039.195	-20100
45046.89	-20100
45054.586	-20100
45062.285	-20100
45069.984	-20100
45077.68	-20100
45085.375	-20100
45093.08	-20100
45100.773	-20100
45108.47	-20100
45116.168	-20100
45123.867	-20100
45131.562	-20100
45139.258	1224
45146.96	15688
45154.656	15555
45162.35	16964
45170.05	20097
45177.75	20097
45185.445	20097
45193.14	20097
45200.844	20097
45208.54	19334
45216.234	17705
45223.938	18833
45231.633	20097
45239.33	16547
45247.023	-812
45254.727	-20100
45262.42	-20100
45270.117	-20100
45277.82	-20100
45285.516	-20100
45293.21	-20100
45300.906	-20100
45308.61	-17180
45316.305	-11519
45324	-2954
45331.703	1273
45339.4	-4239
45347.094	-14493
45354.79	-20100
45362.492	-20100
45370.188	-13583
45377.883	1769
45385.586	12341
45393.28	12174
45400.977	9191
45408.67	11760
45416.375	16174
45424.07	18460
45431.766	20097
45439.47	20097
45447.164	20097
45454.86	20097
45462.562	20097
45470.258	20097
45477.953	20019
45485.65	18460
45493.35	17072
45501.047	15690
45508.742	14721
45516.453	13374
45524.15	11956
45531.848	12996
45539.547	16623
45547.242	20085
45554.938	20097
45562.637	20097
45570.336	20097
45578.03	20097
45585.727	20097
45593.43	20097
45601.125	20097
45608.82	20097
45616.516	20097
45624.22	20097
45631.914	20097
45639.61	20097
45647.31	20097
45655.008	20097
45662.703	20097
45670.4	20097
45678.098	20097
45685.797	20097
45693.492	20097
45701.19	20097
45708.887	20097
45716.586	20097
45724.28	20097
45731.98	20097
45739.676	20097
45747.375	17631
45755.074	9723
45762.77	5802
45770.465	5135
45778.164	3660
45785.863	2630
45793.56	3888
45801.258	4774
45808.957	6796
45816.652	12621
45824.348	11085
45832.047	-608
45839.746	-5201
45847.44	-1253
45855.137	976
45862.84	4158
45870.535	9731
45878.23	12425
45885.926	10530
45893.63	8241
45901.324	9191
45909.02	9137
45916.72	4286
45924.418	-1101
45932.113	-3322
45939.81	-5353
45947.508	-8783
45955.207	-11046
45962.902	-12130
45970.6	-13590
45978.297	-14810
45985.996	-15396
45993.69	-16071
46001.39	-16650
46009.086	-17121
46016.785	-17690
46024.484	-17928
46032.18	-18036
46039.875	-18868
46047.574	-20100
46055.273	-20100
46062.97	-20100
46070.664	-20100
46078.344	-20100
46086.043	-20100
46093.74	-20100
46101.438	-20100
46109.137	-19658
46116.832	-18740
46124.53	-17589
46132.227	-15575
46139.926	-12663
46147.625	-9284
46155.32	-7731
46163.02	-8199
46170.72	-8094
46178.414	-7353
46186.11	-7616
46193.812	-7898
46201.508	-5532
46209.203	569
46216.906	5434
46224.6	4288
46232.297	1616
46239.996	569
46247.695	-1386
46255.39	-3886
46263.09	-5250
46270.79	-6023
46278.484	-7220
46286.184	-9856
46293.88	-14903
46301.58	-20100
46309.277	-20100
46316.973	-19525
46324.67	-12756
46332.37	-6833
46340.066	-9149
46347.766	-17187
46355.465	-20100
46363.16	-20100
46370.855	-20100
46378.555	-20100
46386.254	-20100
46393.95	-20100
46401.65	-20100
46409.348	-20100
46417.043	-20100
46424.74	-20100
46432.44	-20100
46440.137	-20100
46447.832	-20100
46455.535	-20100
46463.23	-20100
46470.926	-14051
46478.625	-10484
46486.324	-7922
46494.02	-4566
46501.72	-3145
46509.418	-4899
46517.113	-7638
46524.812	-7647
46532.508	-5537
46540.207	-4090
46547.906	-4340
46555.6	-5186
46563.3	-2507
46571	3697
46578.695	8771
46586.39	11875
46594.094	13634
46601.79	12984
46609.484	10854
46617.188	8899
46624.883	8092
46632.58	10030
46640.27	13347
46647.973	15462
46655.668	18752
46663.363	20097
46671.066	20097
46678.76	19130
46686.457	13075
46694.16	12584
46701.855	19893
46709.55	20097
46717.25	18922
46724.95	19709
46732.645	20097
46740.344	19209
46748.043	18620
46755.74	18973
46763.438	18748
46771.133	18512
46778.832	18716
46786.53	18829
46794.227	18559
46801.926	18205
46809.625	18038
46817.32	18046
46825.016	18156
46832.72	18367
46840.414	18615
46848.11	18750
46855.812	18698
46863.508	18259
46871.207	16883
46878.906	13440
46886.6	7581
46894.3	3749
46901.996	4733
46909.695	4249
46917.395	1788
46925.09	4114
46932.79	6406
46940.49	2752
46948.184	1155
46955.88	5969
46963.582	9669
46971.277	10349
46978.973	12542
46986.676	16009
46994.37	19435
47002.066	20097
47009.766	20097
47017.465	20097
47025.16	20097
47032.86	20097
47040.56	20097
47048.254	19584
47055.953	18519
47063.65	17781
47071.348	17513
47079.047	17710
47086.742	18085
47094.44	18269
47102.14	18274
47109.836	18419
47117.53	18514
47125.234	18487
47132.93	18485
47140.625	18510
47148.33	18556
47156.023	18537
47163.72	18399
47171.42	18191
47179.117	17928
47186.816	17749
47194.51	17751
47202.21	17739
47209.91	17474
47217.605	17106
47225.305	17013
47233.004	17104
47240.7	17015
47248.395	16871
47256.098	16942
47263.793	17047
47271.49	16925
47279.19	16726
47286.887	16794
47294.582	17040
47302.285	17236
47309.98	17455
47317.676	17631
47325.375	17619
47333.074	17602
47340.77	17643
47348.47	17653
47356.168	17668
47363.863	17688
47371.562	17673
47379.258	17624
47386.957	17538
47394.656	17452
47402.35	17332
47410.05	17074
47417.75	16701
47425.445	16198
47433.14	15428
47440.844	14410
47448.54	13382
47456.234	12437
47463.938	11482
47471.633	10476
47479.33	8538
47487.027	6192
47494.727	7520
47502.426	11441
47510.12	11679
47517.82	8644
47525.52	5682
47533.215	3496
47540.914	3425
47548.613	4784
47556.31	5913
47564.004	8339
47571.707	10668
47579.402	9865
47587.098	9004
47594.8	10435
47602.496	11895
47610.19	12906
47617.89	14338
47625.59	15300
47633.285	15190
47640.984	14844
47648.684	14709
47656.38	14545
47664.08	14358
47671.773	14385
47679.473	14557
47687.17	14594
47694.867	14365
47702.566	14024
47710.266	13862
47717.96	13759
47725.656	13364
47733.36	13023
47741.055	13053
47748.75	13067
47756.453	13087
47764.15	13188
47771.844	13153
47779.547	13303
47787.242	13369
47794.938	13026
47802.637	13001
47810.336	13291
47818.035	13394
47825.73	13480
47833.43	13720
47841.13	14000
47848.824	14230
47856.52	14427
47864.223	14608
47871.918	14790
47879.613	14915
47887.316	14890
47895.01	14765
47902.707	14706
47910.406	14655
47918.105	14468
47925.8	14302
47933.5	14245
47941.2	14120
47948.895	13921
47956.594	13786
47964.293	13664
47971.99	13516
47979.688	13431
47987.383	13386
47995.082	13347
48002.78	13305
48010.477	13178
48018.176	12991
48025.875	12849
48033.57	12704
48041.266	12501
48048.97	12177
48056.664	11578
48064.36	10741
48072.062	9912
48079.758	9156
48087.453	8327
48095.152	7341
48102.85	6107
48110.547	4230
48118.246	1204
48125.945	-2760
48133.645	-7024
48141.34	-10997
48149.035	-13386
48156.74	-13865
48164.434	-13215
48172.13	-10143
48179.832	-4490
48187.527	-328
48195.223	642
48202.926	1194
48210.62	2411
48218.316	3663
48226.016	4904
48233.715	5660
48241.41	5815
48249.11	5685
48256.81	5449
48264.504	5954
48272.203	7365
48279.9	8779
48287.598	9780
48295.297	10135
48302.992	10579
48310.69	12611
48318.39	14967
48326.08	15381
48333.773	14810
48341.473	14638
48349.17	14380
48356.867	13877
48364.566	13482
48372.266	13092
48379.96	12753
48387.66	12714
48395.36	12825
48403.055	12918
48410.754	13092
48418.453	13313
48426.15	13467
48433.848	13563
48441.543	13669
48449.246	13794
48456.94	13875
48464.637	13880
48472.34	13862
48480.035	13892
48487.73	13936
48495.434	13961
48503.13	14039
48510.83	14118
48518.523	14083
48526.223	14091
48533.92	14179
48541.617	14179
48549.316	14147
48557.016	14140
48564.71	14022
48572.41	13823
48580.11	13666
48587.805	13507
48595.504	13276
48603.203	13006
48610.9	12756
48618.598	12550
48626.293	12403
48633.996	12378
48641.69	12376
48649.387	12258
48657.09	12172
48664.785	12184
48672.48	12179
48680.184	12113
48687.88	11951
48695.58	11669
48703.273	11213
48710.973	10629
48718.67	10231
48726.367	9858
48734.066	9112
48741.766	8433
48749.46	8165
48757.16	7868
48764.86	7471
48772.555	7385
48780.254	7505
48787.953	7493
48795.65	7559
48803.348	7893
48811.043	8288
48818.746	8720
48826.44	9421
48834.137	10364
48841.84	11097
48849.535	11453
48857.23	11755
48864.934	11904
48872.63	11463
48880.33	10479
48888.043	9230
48895.74	8101
48903.434	7782
48911.133	8420
48918.832	9387
48926.527	9912
48934.227	9856
48941.926	9613
48949.62	9176
48957.32	8545
48965.02	7885
48972.715	7027
48980.414	6102
48988.11	5535
48995.81	5267
49003.508	5233
49011.203	5530
49018.902	5893
49026.6	6278
49034.297	6973
49041.992	7699
49049.69	8160
49057.39	8678
49065.086	9205
49072.785	9434
49080.484	9534
49088.18	9996
49095.875	10854
49103.58	11460
49111.273	11767
49118.97	12123
49126.67	12248
49134.367	12169
49142.062	12189
49149.76	12216
49157.46	12167
49165.156	12157
49172.855	12309
49180.555	12510
49188.25	12587
49195.95	12596
49203.645	12533
49211.344	12218
49219.043	11657
49226.74	11043
49234.438	10526
49242.137	10256
49249.832	10243
49257.53	10189
49265.23	10005
49272.926	9865
49280.62	9765
49288.324	9674
49296.02	9610
49303.715	9527
49311.418	9360
49319.113	9073
49326.81	8729
49334.504	8648
49342.207	9039
49349.902	9387
49357.598	9169
49365.3	8752
49372.996	8531
49380.69	8332
49388.39	8025
49396.09	7706
49403.785	7223
49411.484	6617
49419.184	6784
49426.88	7530
49434.58	7407
49442.273	6789
49449.94	6526
49457.64	6008
49465.34	5471
49473.035	5523
49480.74	5459
49488.434	4953
49496.133	4517
49503.83	4281
49511.527	4058
49519.227	3545
49526.92	2632
49534.625	1744
49542.32	1084
49550.02	981
49557.72	1675
49565.414	2129
49573.113	1781
49580.81	1354
49588.51	1251
49596.207	1187
49603.906	716
49611.605	-311
49619.3	-1729
49627	-3675
49634.695	-6492
49642.4	-9564
49650.094	-11681
49657.793	-12633
49665.492	-13028
49673.188	-13968
49680.887	-16142
49688.586	-18559
49696.285	-20100
49703.98	-20100
49711.68	-20100
49719.38	-20100
49727.074	-20100
49734.773	-20100
49742.473	-20100
49750.17	-20100
49757.867	-20100
49765.562	-20100
49773.266	-20100
49780.96	-20100
49788.66	-20100
49796.36	-20100
49804.06	-20100
49811.754	-20100
49819.453	-20100
49827.152	-20100
49834.848	-20100
49842.547	-20100
49850.246	-14613
49857.945	-7468
49865.64	-10815
49873.34	-9978
49881.04	723
49888.734	2016
49896.438	-1329
49904.133	4924
49911.832	11804
49919.527	12800
49927.227	12584
49934.926	17106
49942.62	20097
49950.324	20097
49958.02	19498
49965.72	15295
49973.414	20006
49981.113	20097
49988.812	20097
49996.508	20097
50004.21	20097
50011.88	20097
50019.574	20097
50027.273	19977
50034.97	11114
50042.67	-14113
50050.367	-20100
50058.066	-20100
50065.766	-20100
50073.465	-20100
50081.164	-20100
50088.863	-20100
50096.562	-20100
50104.258	-20100
50111.96	-20100
50119.656	-20100
50127.355	-20100
50135.05	-20100
50142.754	-20100
50150.45	-20100
50158.15	-19729
50165.848	-20100
50173.547	-20100
50181.242	-20100
50188.945	-20100
50196.64	-18519
50204.34	-15153
50212.04	-11163
50219.74	-8047
50227.438	-6048
50235.133	-1229
50242.836	7095
50250.53	10587
50258.23	9863
50265.926	11421
50273.63	9044
50281.324	3626
50289.023	6872
50296.723	10840
50304.42	7005
50312.117	5719
50319.82	7292
50327.516	4671
50335.215	2002
50342.918	2608
50350.613	3089
50358.312	2431
50366.008	2534
50373.71	3751
50381.406	6082
50389.105	10683
50396.805	19827
50404.504	20097
50412.2	20097
50419.902	20097
50427.598	20097
50435.297	20097
50442.992	20097
50450.695	20097
50458.39	20097
50466.09	20097
50473.79	20097
50481.49	20097
50489.188	20097
50496.883	20097
50504.586	20097
50512.28	20097
50519.98	20097
50527.68	20097
50535.38	20097
50543.074	20097
50550.777	20097
50558.473	20097
50566.17	20097
50573.93	20097
50581.625	20097
50589.33	20097
50597.023	20097
50604.72	20097
50612.42	20097
50620.117	20097
50627.812	20097
50635.516	20097
50643.21	20097
50650.906	20097
50658.605	20097
50666.305	20097
50674	20097
50681.7	10717
50689.4	8116
50697.094	20097
50704.793	20097
50712.49	20097
50720.188	20097
50727.887	20097
50735.582	20097
50743.28	20097
50750.98	20097
50758.676	20097
50766.37	16083
50774.07	19094
50781.77	20097
50789.465	20097
50797.164	20097
50804.863	20097
50812.56	20097
50820.254	20097
50827.957	20097
50835.652	20097
50843.348	20097
50851.05	20097
50858.746	20097
50866.44	20097
50874.145	20097
50881.84	20097
50889.535	20097
50897.234	20097
50904.934	20097
50912.63	20097
50920.33	20097
50928.027	20097
50935.723	17481
50943.42	18149
50951.117	19891
50958.816	18318
50966.516	15266
50974.21	17555
50981.91	20097
50989.61	20097
50997.305	20097
51005	20097
51012.703	20097
51020.4	19469
51028.094	16176
51035.797	15359
51043.492	20097
51051.188	20097
51058.883	19314
51066.586	15793
51074.28	16402
51081.977	17069
51089.68	14932
51097.375	14203
51105.07	14792
51112.773	14927
51120.47	18591
51128.164	20097
51135.895	20097
51143.59	20097
51151.29	20097
51158.99	20097
51166.684	20097
51174.38	20097
51182.074	20097
51189.777	20097
51197.473	20097
51205.168	20097
51212.867	20097
51220.566	20097
51228.26	20097
51235.957	20097
51243.656	20097
51251.35	20097
51259.05	20097
51266.75	20097
51274.445	20097
51282.14	20097
51289.84	20097
51297.54	20097
51305.234	20097
51312.93	20097
51320.63	20097
51328.33	20097
51336.023	20097
51343.72	20097
51351.418	20097
51359.117	20097
51366.812	20097
51374.51	20097
51382.207	20097
51389.902	20097
51397.6	20097
51405.3	20097
51412.996	20097
51420.69	20097
51428.395	20097
51436.09	20097
51443.785	20097
51451.48	20097
51459.18	20097
51466.88	20097
51474.574	20097
51482.273	20097
51489.97	20097
51497.668	20097
51505.363	20097
51513.062	20097
51520.758	20097
51528.453	20097
51536.156	20097
51543.85	20097
51551.547	20097
51559.242	20097
51566.945	20097
51574.64	20097
51582.336	20097
51590.035	20097
51597.73	20097
51605.43	20097
51613.125	20097
51620.824	20097
51628.52	20097
51636.22	20097
51643.918	20097
51651.613	20097
51659.31	20097
51667.004	20097
51674.707	20097
51682.402	20097
51690.098	20097
51697.766	20097
51705.46	20097
51713.164	20097
51720.86	20097
51728.555	20097
51736.258	20097
51743.953	20097
51751.65	20097
51759.35	20097
51767.047	20097
51774.742	20097
51782.44	20097
51790.14	20097
51797.836	20097
51805.535	20097
51813.234	20097
51820.93	20097
51828.625	20097
51836.324	20097
51844.023	20097
51851.72	20097
51859.418	20097
51867.117	20097
51874.812	20097
51882.51	20097
51890.207	20097
51897.906	20097
51905.605	20097
51913.3	20097
51921	6401
51928.7	13595
51936.395	20097
51944.09	20097
51951.793	20097
51959.49	20097
51967.184	20097
51974.887	20097
51982.582	20097
51990.277	20097
51997.98	20097
52005.676	20097
52013.37	20097
52021.07	20097
52028.77	20097
52036.465	20097
52044.164	20097
52051.863	20097
52059.56	20097
52067.258	20097
52074.953	20097
52082.652	20097
52090.35	20097
52098.047	20097
52105.746	20097
52113.44	20097
52121.14	20097
52128.836	20097
52136.535	20097
52144.234	20097
52151.93	20097
52159.63	20097
52167.33	20097
52175.023	20097
52182.72	20097
52190.42	20097
52198.117	20097
52205.812	20097
52213.516	20097
52221.21	20097
52228.906	20097
52236.61	20097
52244.305	20097
52252	20097
52259.7	20097
52267.4	20097
52275.094	20097
52282.793	20097
52290.492	20097
52298.188	20097
52305.887	20097
52313.582	20097
52321.28	20097
52328.98	20097
52336.676	20097
52344.375	20097
52352.074	20097
52359.77	20097
52367.465	20097
52375.168	20097
52382.863	20097
52390.56	20097
52398.258	20097
52405.957	20097
52413.652	20097
52421.348	20097
52429.05	20097
52436.746	20097
52444.44	20097
52452.145	20097
52459.84	20097
52467.535	20097
52475.24	20097
52482.934	20097
52490.63	20097
52498.33	20097
52506.027	20097
52513.723	20097
52521.42	20097
52529.12	20097
52536.816	20097
52544.516	20097
52552.21	20097
52559.91	20097
52567.61	20097
52575.305	20097
52583.004	20097
52590.703	20097
52598.4	20097
52606.094	20097
52613.797	20097
52621.492	20097
52629.188	20097
52636.89	20097
52644.586	20097
52652.28	20097
52659.98	20097
52667.68	20097
52675.375	20097
52683.07	20097
52690.773	20097
52698.47	20097
52706.164	20097
52713.863	20097
52721.562	20097
52729.258	20097
52736.957	20097
52744.656	20097
52752.35	20097
52760.05	20097
52767.75	20097
52775.445	20097
52783.145	20097
52790.84	20097
52798.54	20097
52806.24	20097
52813.934	20097
52821.6	20097
52829.297	20097
52837	20097
52844.695	20097
52852.395	20097
52860.094	20097
52867.793	20097
52875.49	20097
52883.188	20097
52890.887	20097
52898.582	20097
52906.28	20097
52913.98	20097
52921.68	20097
52929.375	20097
52937.074	20097
52944.773	20097
52952.47	20097
52960.17	20097
52967.867	20097
52975.566	20097
52983.26	20097
52990.96	20097
52998.66	20097
53006.355	20097
53014.06	20097
53021.754	20097
53029.45	20097
53037.15	20097
53044.848	20097
53052.547	20097
53060.242	20097
53067.945	20097
53075.64	20097
53083.336	20097
53091.04	20097
53098.734	20097
53106.434	20097
53114.13	20097
53121.832	20097
53129.527	20097
53137.223	20097
53144.926	20097
53152.62	20097
53160.32	20097
53168.016	20097
53175.72	20097
53183.414	20097
53191.11	20097
53198.812	20097
53206.508	20097
53214.207	20097
53221.906	20097
53229.605	20097
53237.3	20097
53244.996	20097
53252.7	20097
53260.395	20097
53268.094	20097
53275.793	20097
53283.492	20097
53291.188	20097
53298.883	20097
53306.586	20097
53314.28	20097
53321.98	20097
53329.68	20097
53337.38	20097
53345.074	20097
53352.773	20097
53360.473	20097
53368.168	20097
53375.867	20097
53383.594	20097
53391.293	20097
53398.992	20097
53406.688	20097
53414.387	20097
53422.086	20097
53429.78	20097
53437.48	20097
53445.176	20097
53452.875	20097
53460.574	20097
53468.27	20097
53475.97	20097
53483.668	20097
53491.363	20097
53499.06	20097
53506.76	20097
53514.457	20097
53522.152	20097
53529.855	20097
53537.55	20097
53545.246	20097
53552.945	20097
53560.645	20097
53568.34	20097
53576.04	20097
53583.74	20097
53591.434	20097
53599.133	20097
53606.832	20097
53614.527	20097
53622.227	20097
53629.92	20097
53637.62	20097
53645.316	20097
53653.016	20097
53660.715	20097
53668.41	20097
53676.11	20097
53683.805	20097
53691.504	20097
53699.203	20097
53706.9	20097
53714.598	20097
53722.297	20097
53729.992	20097
53737.688	20097
53745.39	20097
53753.086	20097
53760.78	20097
53768.484	20097
53776.18	20097
53783.875	20097
53791.574	20097
53799.273	20097
53806.97	20097
53814.668	20097
53822.367	20097
53830.062	20097
53837.76	20097
53845.457	20097
53853.156	20097
53860.855	20097
53868.55	20097
53876.25	20097
53883.95	20097
53891.645	20097
53899.344	20097
53907.043	20097
53914.74	20097
53922.434	20097
53930.133	20097
53937.832	20097
53945.52	20097
53953.215	20097
53960.914	20097
53968.613	17369
53976.31	14073
53984.008	15438
53991.707	15977
53999.402	15796
54007.1	16495
54014.8	18505
54022.496	20097
54030.195	20097
54037.895	20097
54045.59	20097
54053.29	20097
54060.99	20097
54068.684	15447
54076.383	16161
54084.08	20097
54091.777	20097
54099.477	20097
54107.17	20097
54114.875	20097
54122.57	20097
54130.266	20097
54137.965	18858
54145.664	11875
54153.36	-576
54161.06	-10197
54168.758	-16343
54176.453	-19228
54184.152	-7564
54191.848	15310
54199.55	20097
54207.246	20097
54214.94	20097
54222.645	20097
54230.34	20097
54238.035	20097
54245.74	20097
54253.434	20097
54261.13	18512
54268.83	9299
54276.527	8008
54284.223	9677
54291.92	13566
54299.62	20097
54307.32	20097
54315.016	20097
54322.71	20097
54330.414	20097
54338.11	20097
54345.805	20097
54353.508	20097
54361.203	20097
54368.9	20097
54376.598	20097
54384.297	20097
54391.992	20097
54399.69	20097
54407.39	20097
54415.09	20097
54422.785	20097
54430.484	20097
54438.184	20097
54445.88	20097
54453.574	20097
54461.277	20097
54468.973	20097
54476.668	20097
54484.37	20097
54492.066	20097
54499.76	20097
54507.45	20097
54515.152	20097
54522.848	20097
54530.547	20097
54538.242	20097
54545.94	20097
54553.64	20097
54561.336	20097
54569.04	20097
54576.734	20097
54584.43	20097
54592.133	20097
54599.83	20097
54607.523	20097
54615.223	20097
54622.92	20097
54630.62	20097
54638.316	20097
54646.016	20097
54653.715	20097
54661.41	20097
54669.11	20097
54676.81	20097
54684.504	20097
54692.203	20097
54699.902	20097
54707.6	20097
54715.297	20097
54722.996	20097
54730.695	20097
54738.39	20097
54746.09	20097
54753.79	20097
54761.484	20097
54769.184	20097
54776.883	20097
54784.582	20097
54792.277	20097
54799.973	20097
54807.676	20097
54815.37	20097
54823.066	20097
54830.77	20097
54838.465	20097
54846.164	20097
54853.863	20097
54861.56	20097
54869.258	20097
54876.953	20097
54884.656	20097
54892.35	20097
54900.047	20097
54907.75	20097
54915.445	20097
54923.145	20097
54930.84	20097
54938.54	20097
54946.24	20097
54953.934	20097
54961.637	20097
54969.332	20097
54977.027	20097
54984.73	20097
54992.426	20097
55000.125	20097
55007.82	20097
55015.52	20097
55023.22	20097
55030.914	20097
55038.613	20097
55046.312	20097
55054.008	20097
55061.707	20097
55069.406	20097
55077.1	20097
55084.8	20097
55092.5	20097
55100.2	20097
55107.895	20097
55115.59	20097
55123.293	20097
55130.99	20097
55138.688	20097
55146.387	20097
55154.082	20097
55161.78	20097
55169.48	20097
55177.18	20097
55184.875	20097
55192.57	20097
55200.273	20097
55207.97	20097
55215.664	20097
55223.367	20097
55231.062	20097
55238.76	20097
55246.457	20097
55254.156	20097
55261.855	20097
55269.55	20097
55277.254	20097
55284.95	20097
55292.645	20097
55300.348	20097
55308.043	20097
55315.742	20097
55323.438	20097
55331.137	20097
55338.836	20097
55346.53	20097
55354.234	20097
55361.93	20097
55369.625	20097
55377.324	20097
55385.023	20097
55392.723	20097
55400.418	20097
55408.117	20097
55415.816	20097
55423.51	20097
55431.207	20097
55438.91	20097
55446.605	20097
55454.305	20097
55462.004	20097
55469.7	20097
55477.4	20097
55485.098	20097
55492.797	20097
55500.492	20097
55508.188	20097
55515.89	20097
55523.586	20097
55531.285	20097
55538.984	20097
55546.68	20097
55554.38	20097
55562.074	20097
55569.777	20097
55577.473	20097
55585.168	20097
55592.87	20097
55600.566	20097
55608.266	20097
55615.965	20097
55623.66	20097
55631.37	20097
55639.074	20097
55646.77	20097
55654.465	20097
55662.168	20097
55669.863	20097
55677.56	20097
55685.258	20097
55692.957	20097
55700.652	20097
55708.35	20097
55716.05	20097
55723.746	20097
55731.445	20097
55739.14	20097
55746.84	20097
55754.54	20097
55762.234	20097
55769.938	20097
55777.633	20097
55785.33	20097
55793.027	20097
55800.727	20097
55808.42	20097
55816.12	20097
55823.82	20097
55831.516	20097
55839.215	20097
55846.91	20097
55854.61	20097
55862.31	20097
55870.004	20097
55877.703	20097
55885.402	20097
55893.098	20097
55900.793	20097
55908.496	20097
55916.19	20097
55923.887	20097
55931.59	20097
55939.285	20097
55946.98	20097
55954.684	20097
55962.38	20097
55970.074	20097
55977.773	20097
55985.473	20097
55993.168	20097
56000.867	20097
56008.566	20097
56016.26	20097
56023.96	20097
56031.656	20097
56039.355	20097
56047.055	20097
56054.75	20097
56062.45	20097
56070.15	20097
56077.844	20097
56085.54	20097
56093.242	20097
56100.938	20097
56108.637	20097
56116.336	20097
56124.03	20097
56131.73	20097
56139.43	20097
56147.125	20097
56154.824	20097
56162.52	20097
56170.22	20097
56177.918	20097
56185.613	20097
56193.312	20097
56201.01	20097
56208.707	20097
56216.402	20097
56224.105	20097
56231.8	20097
56239.496	20097
56247.2	20097
56254.895	20097
56262.59	20097
56270.29	20097
56277.99	20097
56285.684	20097
56293.383	20097
56301.082	20097
56308.777	20097
56316.477	20097
56324.17	20097
56331.87	20097
56339.57	20097
56347.266	20097
56354.965	20097
56362.664	20097
56370.36	20097
56378.06	20097
56385.758	20097
56393.453	20097
56401.15	20097
56408.85	20097
56416.547	20097
56424.246	20097
56431.945	20097
56439.64	20097
56447.34	20097
56455.035	20097
56462.734	20097
56470.434	20097
56478.13	20097
56485.83	20097
56493.527	20097
56501.223	20097
56508.918	20097
56516.62	20097
56524.316	20097
56532.01	20097
56539.715	20097
56547.41	20097
56555.105	20097
56562.81	20097
56570.504	20097
56578.2	20097
56585.9	20097
56593.598	20097
56601.293	20097
56608.992	20097
56616.69	20097
56624.387	20097
56632.086	20097
56639.78	20097
56647.48	20097
56655.18	20097
56662.875	20097
56670.574	20097
56678.273	20097
56685.97	20097
56693.664	20097
56701.367	20097
56709.062	20097
56716.758	20097
56724.46	20097
56732.156	20097
56739.855	20097
56747.555	20097
56755.223	20097
56762.926	20097
56770.62	20097
56778.316	20097
56786.02	20097
56793.715	20097
56801.414	20097
56809.113	20097
56816.81	20097
56824.508	20097
56832.203	20097
56839.906	20097
56847.6	20097
56855.3	20097
56863	20097
56870.695	20097
56878.395	20097
56886.09	20097
56893.793	20097
56901.49	20097
56909.188	20097
56916.887	20097
56924.582	20097
56932.28	20097
56939.98	20097
56947.68	20097
56955.375	20097
56963.074	20097
56970.773	20097
56978.47	20097
56986.168	20097
56993.867	20097
57001.566	20097
57009.26	20097
57016.965	20097
57024.66	20097
57032.355	20097
57040.055	20097
57047.754	20097
57055.453	20097
57063.15	20097
57070.85	20097
57078.547	20097
57086.242	20097
57093.94	20097
57101.64	20097
57109.34	20097
57117.035	20097
57124.74	20097
57132.434	20097
57140.13	20097
57147.832	20097
57155.527	20097
57163.227	20097
57170.92	20097
57178.625	20097
57186.32	20097
57194.016	20097
57201.72	20097
57209.414	20097
57217.113	20097
57224.81	20097
57232.51	20097
57240.207	20097
57247.902	20097
57255.605	20097
57263.3	20097
57271	20097
57278.7	20097
57286.395	20097
57294.094	20097
57301.79	20097
57309.492	20097
57317.22	20097
57324.918	20097
57332.613	20097
57340.312	20097
57348.01	20097
57355.707	20097
57363.406	20097
57371.1	20097
57378.8	20097
57386.496	20097
57394.195	20097
57401.895	20097
57409.59	20097
57417.29	20097
57424.984	20097
57432.684	20097
57440.383	20097
57448.08	20097
57455.777	20097
57463.477	20097
57471.17	20097
57478.867	20097
57486.57	20097
57494.266	20097
57501.96	20097
57509.664	20097
57517.36	20097
57525.055	20097
57532.758	20097
57540.453	20097
57548.15	20097
57555.848	20097
57563.547	20097
57571.242	20097
57578.94	20097
57586.64	20097
57594.336	20097
57602.035	20097
57609.73	20097
57617.43	20097
57625.13	20097
57632.824	20097
57640.523	20097
57648.223	20097
57655.918	20097
57663.613	20097
57671.312	20097
57679.01	20097
57686.707	20097
57694.406	20097
57702.105	20097
57709.8	20097
57717.496	20097
57725.2	20097
57732.895	20097
57740.59	20097
57748.293	20097
57755.99	20097
57763.684	20097
57771.387	20097
57779.082	20097
57786.777	20097
57794.477	20097
57802.176	20097
57809.87	20097
57817.57	20097
57825.27	20097
57832.965	20097
57840.664	20097
57848.36	20097
57856.06	20097
57863.758	20097
57871.453	20097
57879.137	20097
57886.836	20097
57894.53	20097
57902.23	20097
57909.93	20097
57917.625	20097
57925.324	20097
57933.02	20097
57940.723	20097
57948.418	20097
57956.113	20097
57963.816	20097
57971.51	20097
57979.207	20097
57986.906	20097
57994.605	20097
58002.305	20097
58010	20097
58017.7	20097
58025.4	20097
58033.094	20097
58040.793	20097
58048.492	20097
58056.188	20097
58063.887	20097
58071.586	20097
58079.28	20097
58086.98	20097
58094.68	20097
58102.375	20097
58110.074	20097
58117.77	20097
58125.473	20097
58133.168	20097
58140.863	20097
58148.566	20097
58156.26	20097
58163.957	20097
58171.66	20097
58179.355	20097
58187.055	20097
58194.75	20097
58202.45	20097
58210.15	20097
58217.844	20097
58225.543	20097
58233.242	20097
58240.938	20097
58248.637	20097
58256.336	20097
58264.03	20097
58271.73	20097
58279.43	20097
58287.125	20097
58294.824	20097
58302.52	20097
58310.223	20097
58317.918	20097
58325.613	20097
58333.316	20097
58341.01	20097
58348.707	20097
58356.41	20097
58364.105	20097
58371.805	20097
58379.5	20097
58387.2	20097
58394.9	20097
58402.594	20097
58410.293	20097
58417.992	20097
58425.688	20097
58433.387	20097
58441.094	20097
58448.793	20097
58456.49	20097
58464.188	20097
58471.887	20097
58479.582	20097
58487.28	20097
58494.98	20097
58502.676	20097
